yop_kodu,year,lise_id,yerlesen_sayisi,school_type
106310016,2025,5392,1,4
106310016,2025,11421,1,4
106310016,2025,4395,1,4
106310016,2025,2804,2,4
106310016,2025,4253,1,4
106310016,2025,1132,1,4
106310016,2025,12316,1,4
106310016,2025,10947,1,4
106310016,2025,2023,1,4
106310016,2025,4656,1,4
106310016,2025,11166,1,4
106310016,2025,4339,1,4
106310016,2025,1760,1,4
106310016,2025,3963,1,4
106310016,2025,5860,1,4
106310016,2025,2480,1,4
106310016,2025,1734,1,4
106310016,2025,2261,1,4
106310016,2025,5143,1,4
106310016,2025,10747,1,4
106310016,2025,9648,1,4
106310016,2025,1935,1,4
106310016,2025,2427,1,0
106310016,2025,2821,1,4
106310016,2025,4498,1,4
106310016,2025,4173,1,4
106310016,2025,10277,1,4
106310016,2025,10863,1,5
106310016,2025,11047,1,5
106310016,2025,4502,1,5
106310016,2025,2384,1,5
106310016,2025,176,1,5
106310016,2025,1792,2,4
106310016,2025,3394,1,5
106310016,2025,9884,1,4
106310016,2025,8943,1,4
106310016,2025,6619,1,4
106310016,2025,3778,1,4
106310016,2025,3614,1,4
106310016,2025,936,1,4
106310016,2025,6710,1,4
106310016,2025,1979,1,4
106310016,2025,7404,1,4
106310016,2025,10,3,8
106310016,2025,7530,1,4
106310016,2025,1810,1,4
106310016,2025,4820,1,4
106310016,2025,3459,1,4
106310025,2025,2282,1,4
106310025,2025,3963,1,4
106310025,2025,1942,3,0
106310025,2025,2425,1,0
106310025,2025,7583,1,4
106310025,2025,908,1,4
106310025,2025,909,1,4
106310025,2025,120,1,4
106310025,2025,12317,2,0
106310025,2025,4173,1,4
106310025,2025,4099,1,4
106310025,2025,1798,1,4
106310025,2025,3439,1,5
106310025,2025,8428,4,5
106310025,2025,875,1,3
106310025,2025,11981,1,3
106310025,2025,2748,1,4
106310025,2025,1093,1,4
106310025,2025,3778,3,4
106310025,2025,1979,1,4
106310025,2025,4751,1,0
106310025,2025,10,7,8
106310025,2025,7530,1,4
106310025,2025,10838,1,4
106310025,2025,6869,1,4
106310025,2025,11421,1,4
106310025,2025,8513,1,4
106310061,2025,2395,1,4
106310061,2025,7116,1,0
106310061,2025,12071,1,4
106310061,2025,3963,1,4
106310061,2025,2486,1,4
106310061,2025,1851,1,5
106310061,2025,2963,1,3
106310061,2025,3756,1,4
106310061,2025,4673,1,4
106310061,2025,6551,1,4
106310061,2025,1945,1,4
106310061,2025,11485,1,4
106310061,2025,2341,1,4
106310061,2025,8983,1,4
106310061,2025,6669,1,4
106310061,2025,5655,1,4
106310061,2025,1979,1,4
106310061,2025,3071,1,4
106310061,2025,10,7,8
106310061,2025,2345,1,4
106310061,2025,6750,1,4
106310061,2025,2317,1,4
106310061,2025,11421,1,4
106310061,2025,12095,1,4
106310061,2025,2225,1,4
106310088,2025,4342,1,4
106310088,2025,7492,1,4
106310088,2025,6992,1,4
106310088,2025,2282,1,4
106310088,2025,112,1,4
106310088,2025,8868,1,4
106310088,2025,2500,1,4
106310088,2025,7888,1,4
106310088,2025,412,1,4
106310088,2025,5860,1,4
106310088,2025,10,4,8
106310088,2025,4015,1,4
106310088,2025,10568,1,4
106310088,2025,2171,1,4
106310088,2025,2970,1,4
106310088,2025,2914,1,4
106310088,2025,2384,1,5
106310088,2025,6420,1,4
106310088,2025,269,1,4
106310088,2025,2800,1,4
106310088,2025,4490,1,4
106310088,2025,1620,1,4
106310088,2025,2034,1,0
106310088,2025,4820,1,4
106310088,2025,5126,1,4
106310088,2025,2946,1,4
106310088,2025,1464,1,4
106310088,2025,6869,1,4
106310104,2025,11076,1,4
106310104,2025,2553,1,4
106310104,2025,12318,1,4
106310104,2025,1812,1,4
106310104,2025,2366,1,4
106310104,2025,5550,1,4
106310104,2025,2695,1,4
106310104,2025,2519,1,4
106310104,2025,2477,1,4
106310104,2025,3963,1,4
106310104,2025,1935,1,4
106310104,2025,1942,1,0
106310104,2025,2880,1,4
106310104,2025,4015,1,4
106310104,2025,4645,1,4
106310104,2025,8357,1,5
106310104,2025,9910,1,5
106310104,2025,12319,1,1
106310104,2025,1833,1,4
106310104,2025,7331,1,4
106310104,2025,2700,1,4
106310104,2025,10,3,8
106310104,2025,3778,1,4
106310104,2025,10817,1,4
106310104,2025,2301,1,4
106310104,2025,2145,1,4
106310104,2025,3235,1,4
106310104,2025,3942,1,4
106310104,2025,4650,1,4
106310104,2025,2946,1,4
106310113,2025,1513,1,4
106310113,2025,1348,1,4
106310113,2025,3963,1,4
106310113,2025,5860,1,4
106310113,2025,2480,1,4
106310113,2025,2794,1,4
106310113,2025,4829,1,4
106310113,2025,2171,1,4
106310113,2025,3726,1,4
106310113,2025,2484,1,4
106310113,2025,10,7,8
106310113,2025,1798,1,4
106310113,2025,7197,1,5
106310113,2025,203,1,5
106310113,2025,2918,2,3
106310113,2025,2176,1,5
106310113,2025,12320,2,1
106310113,2025,2973,1,5
106310113,2025,5620,1,4
106310113,2025,1323,1,4
106310113,2025,1775,1,4
106310113,2025,2178,1,4
106310113,2025,8231,1,4
106310113,2025,3372,1,4
106310113,2025,2752,2,4
106310113,2025,2405,1,4
106310113,2025,1928,1,4
106310113,2025,6776,1,4
106310113,2025,2316,1,4
106310113,2025,2227,1,4
106310113,2025,989,1,4
106310113,2025,1215,1,4
106310149,2025,12321,1,0
106310149,2025,4722,1,4
106310149,2025,1942,1,0
106310149,2025,4645,1,4
106310149,2025,851,1,8
106310149,2025,2054,1,5
106310149,2025,1498,1,5
106310149,2025,12322,1,4
106310149,2025,3756,1,4
106310149,2025,4383,1,4
106310149,2025,1792,1,4
106310149,2025,3778,1,4
106310149,2025,101,1,4
106310149,2025,1979,1,4
106310149,2025,10,2,8
106310149,2025,5883,1,4
106310149,2025,11595,1,4
106310149,2025,9546,1,4
106310149,2025,12323,1,4
106310149,2025,2282,1,4
106310149,2025,4699,1,4
106310167,2025,10838,1,4
106310167,2025,4370,1,4
106310167,2025,12277,1,4
106310167,2025,7492,1,4
106310167,2025,989,1,4
106310167,2025,1572,1,4
106310167,2025,7117,1,0
106310167,2025,7087,1,4
106310167,2025,2165,1,4
106310167,2025,5742,1,0
106310167,2025,6875,1,4
106310167,2025,8168,1,4
106310167,2025,11731,1,4
106310167,2025,1818,1,4
106310167,2025,2805,1,4
106310167,2025,1942,2,0
106310167,2025,2480,1,4
106310167,2025,5931,1,4
106310167,2025,5638,1,4
106310167,2025,2482,1,4
106310167,2025,11730,1,4
106310167,2025,10,5,8
106310167,2025,2171,1,4
106310167,2025,5996,1,4
106310167,2025,12317,1,0
106310167,2025,1798,1,4
106310167,2025,7898,1,3
106310167,2025,7664,1,5
106310167,2025,2416,1,5
106310167,2025,12324,1,5
106310167,2025,3755,1,5
106310167,2025,6385,1,4
106310167,2025,2512,1,4
106310167,2025,9066,1,4
106310167,2025,4267,1,4
106310167,2025,2825,1,4
106310167,2025,1775,1,4
106310167,2025,6570,1,4
106310167,2025,12325,1,4
106310167,2025,6619,1,4
106310167,2025,1482,1,4
106310167,2025,12326,1,4
106310167,2025,3413,1,4
106310167,2025,1621,1,4
106310167,2025,4650,1,4
106310167,2025,7444,1,4
106310167,2025,840,1,4
106310176,2025,2167,1,4
106310176,2025,9477,1,4
106310176,2025,909,1,4
106310176,2025,2930,1,4
106310176,2025,2950,1,4
106310176,2025,12327,1,5
106310176,2025,5473,1,5
106310176,2025,708,1,7
106310176,2025,8721,1,1
106310176,2025,11245,1,5
106310176,2025,10,8,8
106310176,2025,9460,1,5
106310176,2025,947,1,5
106310176,2025,12254,1,5
106310176,2025,4766,1,4
106310176,2025,9051,1,4
106310176,2025,9721,1,4
106310176,2025,3952,1,4
106310176,2025,2752,1,4
106310176,2025,4093,1,4
106310176,2025,6619,1,4
106310176,2025,10637,1,4
106310176,2025,934,1,4
106310176,2025,4602,1,4
106310176,2025,3459,1,4
106310176,2025,1588,1,4
106310176,2025,7015,1,4
106310176,2025,5860,1,4
106310176,2025,1942,1,0
106310176,2025,2480,1,4
106310185,2025,3487,1,2
106310185,2025,57,1,4
106310185,2025,8272,1,2
106310185,2025,120,1,4
106310185,2025,2305,1,4
106310185,2025,2431,1,4
106310185,2025,4498,1,4
106310185,2025,1798,1,4
106310185,2025,5000,1,4
106310185,2025,169,1,5
106310185,2025,10,6,8
106310185,2025,2918,1,3
106310185,2025,176,1,5
106310185,2025,2973,1,5
106310185,2025,4355,1,5
106310185,2025,3668,1,4
106310185,2025,594,1,4
106310185,2025,8383,1,4
106310185,2025,87,1,2
106310185,2025,2148,1,4
106310185,2025,5548,1,4
106310185,2025,10746,1,4
106310185,2025,2871,1,4
106310185,2025,1870,1,4
106310185,2025,3543,1,2
106310185,2025,5731,1,4
106310219,2025,2735,1,2
106310219,2025,3410,1,0
106310219,2025,5666,1,4
106310219,2025,57,1,4
106310219,2025,2425,1,0
106310219,2025,2232,1,4
106310219,2025,120,1,4
106310219,2025,158,2,0
106310219,2025,4507,1,4
106310219,2025,1543,1,4
106310219,2025,2320,1,4
106310219,2025,2027,1,12
106310219,2025,590,1,4
106310219,2025,1766,1,6
106310219,2025,286,1,0
106310219,2025,1677,1,4
106310219,2025,2565,1,4
106310219,2025,1415,1,4
106310219,2025,2633,1,5
106310219,2025,3988,1,5
106310219,2025,4872,1,5
106310219,2025,10,4,8
106310219,2025,397,1,5
106310219,2025,8343,1,5
106310219,2025,3861,1,3
106310219,2025,3881,1,4
106310219,2025,1771,1,0
106310219,2025,303,1,4
106310219,2025,2773,1,4
106310219,2025,181,1,4
106310219,2025,3057,1,4
106310219,2025,11992,1,4
106310219,2025,1589,1,4
106310219,2025,5273,1,4
106310219,2025,4488,1,4
106310219,2025,3298,1,4
106310219,2025,936,1,4
106310219,2025,1657,1,4
106310219,2025,5334,1,4
106310219,2025,1595,1,4
106310219,2025,2946,1,4
106310219,2025,1986,1,4
106310219,2025,2318,1,4
106310228,2025,1160,1,4
106310228,2025,189,1,4
106310228,2025,1790,1,4
106310228,2025,2318,1,4
106310228,2025,4395,2,4
106310228,2025,1345,3,4
106310228,2025,2719,1,4
106310228,2025,4224,1,4
106310228,2025,2366,1,4
106310228,2025,1040,1,4
106310228,2025,4099,2,4
106310228,2025,561,1,4
106310228,2025,191,1,4
106310228,2025,3542,1,4
106310228,2025,1728,1,4
106310228,2025,3866,1,2
106310228,2025,957,1,4
106310228,2025,1713,1,4
106310228,2025,2519,1,4
106310228,2025,57,2,4
106310228,2025,3963,2,4
106310228,2025,1792,1,4
106310228,2025,1942,1,0
106310228,2025,2880,1,4
106310228,2025,2706,1,4
106310228,2025,4260,1,4
106310228,2025,2232,2,4
106310228,2025,2794,2,4
106310228,2025,2889,1,4
106310228,2025,2950,1,4
106310228,2025,870,1,4
106310228,2025,1135,1,4
106310228,2025,10,11,8
106310228,2025,998,1,4
106310228,2025,6068,1,4
106310228,2025,1415,1,4
106310228,2025,6101,1,5
106310228,2025,3988,1,5
106310228,2025,2437,1,3
106310228,2025,4502,1,5
106310228,2025,4365,1,5
106310228,2025,4670,1,5
106310228,2025,3534,1,5
106310228,2025,939,1,2
106310228,2025,1430,1,3
106310228,2025,2748,1,4
106310228,2025,2749,1,4
106310228,2025,3881,1,4
106310228,2025,4673,1,4
106310228,2025,3403,1,4
106310228,2025,1612,1,2
106310228,2025,932,3,2
106310228,2025,1559,1,4
106310228,2025,933,2,4
106310228,2025,217,1,4
106310228,2025,3778,1,4
106310228,2025,2956,1,4
106310228,2025,1022,1,2
106310228,2025,87,2,2
106310228,2025,2345,1,4
106310228,2025,2346,1,4
106310228,2025,982,1,4
106310255,2025,3545,1,4
106310255,2025,2706,1,4
106310255,2025,2950,1,4
106310255,2025,8535,1,4
106310255,2025,1829,2,5
106310255,2025,2686,1,4
106310255,2025,10,4,8
106310255,2025,4688,1,4
106310255,2025,2946,1,4
106310255,2025,4661,1,4
106310255,2025,2366,1,4
106310255,2025,5522,1,4
106310255,2025,1132,1,4
106310255,2025,2877,1,2
106310264,2025,7006,1,4
106310264,2025,2282,1,4
106310264,2025,12316,1,4
106310264,2025,5076,1,4
106310264,2025,2539,1,4
106310264,2025,1185,1,4
106310264,2025,3292,1,4
106310264,2025,3834,1,4
106310264,2025,1556,1,4
106310264,2025,12328,1,0
106310264,2025,10,4,8
106310264,2025,1798,1,4
106310264,2025,6068,1,4
106310264,2025,8428,1,5
106310264,2025,12329,1,5
106310264,2025,452,1,5
106310264,2025,11847,1,5
106310264,2025,4648,1,4
106310264,2025,7323,1,4
106310264,2025,1095,1,4
106310264,2025,3973,1,4
106310264,2025,1621,2,4
106310264,2025,3778,1,4
106310264,2025,4490,1,4
106310264,2025,6699,1,4
106310264,2025,2757,1,4
106310264,2025,6729,1,4
106310264,2025,6788,1,4
106310264,2025,2553,1,4
106310264,2025,3809,1,4
106310264,2025,5155,1,4
106310264,2025,2099,1,4
106310264,2025,4676,1,4
106390033,2025,2973,1,5
106390033,2025,2748,1,4
106390033,2025,889,1,4
106390033,2025,3722,1,4
106390033,2025,250,1,4
106390033,2025,1734,1,4
106390033,2025,2232,1,4
106390033,2025,120,2,4
106390033,2025,8343,1,5
106390033,2025,1829,1,5
106390038,2025,2225,1,4
106390038,2025,3089,1,4
106390038,2025,1813,1,4
106390038,2025,112,1,4
106390038,2025,2164,1,4
106390038,2025,3469,1,4
106390038,2025,9614,1,4
106390038,2025,2371,1,4
106390038,2025,5747,1,4
106390038,2025,9478,1,4
106390038,2025,1792,1,4
106390038,2025,2104,1,4
106390038,2025,4506,1,4
106390038,2025,2045,1,4
106390038,2025,2794,1,4
106390038,2025,4264,1,4
106390038,2025,3741,1,4
106390038,2025,2840,1,4
106390038,2025,1527,2,4
106390038,2025,4867,1,4
106390038,2025,1135,1,4
106390038,2025,10,8,8
106390038,2025,1798,1,4
106390038,2025,2842,1,4
106390038,2025,6068,1,4
106390038,2025,1824,1,4
106390038,2025,815,1,4
106390038,2025,7153,1,5
106390038,2025,4951,1,3
106390038,2025,5163,1,5
106390038,2025,176,1,5
106390038,2025,7661,1,3
106390038,2025,4688,1,4
106390038,2025,7901,1,5
106390038,2025,2080,1,5
106390038,2025,3658,1,3
106390038,2025,1138,1,5
106390038,2025,1034,1,1
106390038,2025,1829,1,5
106390038,2025,578,1,5
106390038,2025,11860,1,3
106390038,2025,2748,1,4
106390038,2025,4648,1,4
106390038,2025,3942,1,4
106390038,2025,83,1,4
106390038,2025,4536,1,4
106390038,2025,1835,1,4
106390038,2025,2752,1,4
106390038,2025,214,1,4
106390038,2025,3668,1,4
106390038,2025,1900,1,4
106390038,2025,3298,1,4
106390038,2025,4708,1,4
106390038,2025,2755,1,4
106390038,2025,1621,1,4
106390038,2025,3414,1,2
106390038,2025,2345,1,4
106390038,2025,4252,1,4
106390038,2025,2553,1,4
106390039,2025,2804,1,4
106390039,2025,604,1,4
106390039,2025,57,1,4
106390039,2025,1734,1,4
106390039,2025,869,1,4
106390039,2025,5638,1,4
106390039,2025,1046,1,4
106390039,2025,2913,1,4
106390039,2025,1527,1,4
106390039,2025,1259,1,4
106390039,2025,1792,1,4
106390039,2025,493,1,5
106390039,2025,8428,2,5
106390039,2025,10871,1,5
106390039,2025,11604,1,1
106390039,2025,2639,1,4
106390039,2025,4557,1,4
106390039,2025,6541,1,4
106390039,2025,3778,1,4
106390039,2025,5470,1,4
106390039,2025,10,4,8
106390039,2025,974,1,0
106390039,2025,7165,1,4
106390039,2025,2409,1,4
106390039,2025,3922,1,4
106390039,2025,12330,1,4
106390039,2025,9540,2,4
106390040,2025,235,1,4
106390040,2025,902,1,4
106390040,2025,1540,1,2
106390040,2025,3963,1,4
106390040,2025,3432,1,4
106390040,2025,9334,1,4
106390040,2025,1301,1,4
106390040,2025,961,1,5
106390040,2025,1740,1,5
106390040,2025,12331,1,5
106390040,2025,4099,1,4
106390040,2025,4502,1,5
106390040,2025,8195,1,1
106390040,2025,4481,1,5
106390040,2025,232,1,3
106390040,2025,2590,1,4
106390040,2025,2299,1,2
106390040,2025,2450,1,4
106390040,2025,2405,1,4
106390040,2025,6619,1,4
106390040,2025,216,1,4
106390040,2025,301,1,8
106390040,2025,10,2,8
106390040,2025,2715,1,4
106390040,2025,1027,1,4
106390040,2025,3942,1,4
106390040,2025,1753,1,4
106390040,2025,1811,1,4
106390045,2025,2345,1,4
106390045,2025,4097,1,4
106390045,2025,1316,1,4
106390045,2025,2316,1,4
106390045,2025,4661,1,4
106390045,2025,2804,1,4
106390045,2025,1072,1,0
106390045,2025,2366,1,4
106390045,2025,57,1,4
106390045,2025,906,1,4
106390045,2025,10,2,8
106390045,2025,1942,2,0
106390045,2025,2425,1,0
106390045,2025,2880,2,4
106390045,2025,1527,1,4
106390045,2025,2914,1,4
106390045,2025,2172,1,4
106390045,2025,299,1,4
106390045,2025,6068,1,4
106390045,2025,300,1,5
106390045,2025,3857,1,5
106390045,2025,2301,1,4
106390045,2025,9109,1,5
106390045,2025,4533,1,5
106390045,2025,5543,1,4
106390045,2025,3995,1,4
106390045,2025,269,1,4
106390045,2025,1634,1,4
106390045,2025,2528,1,4
106390045,2025,4535,1,4
106390045,2025,1064,1,4
106390045,2025,4093,1,4
106390045,2025,4170,1,4
106390045,2025,5109,1,4
106390045,2025,9276,1,4
106390045,2025,2613,1,4
106390045,2025,1387,1,4
106390045,2025,12332,1,4
106390045,2025,12333,1,4
106390045,2025,1184,1,4
106390045,2025,1550,1,4
106390046,2025,2519,1,4
106390046,2025,3962,1,4
106390046,2025,3963,3,4
106390046,2025,12334,1,4
106390046,2025,1942,3,0
106390046,2025,2794,2,4
106390046,2025,2305,1,4
106390046,2025,2171,1,4
106390046,2025,2950,1,4
106390046,2025,2195,1,4
106390046,2025,10,4,8
106390046,2025,670,1,4
106390046,2025,2590,1,4
106390046,2025,1698,1,2
106390046,2025,6619,1,4
106390046,2025,2757,1,4
106390046,2025,1811,1,4
106390046,2025,4650,1,4
106390046,2025,1812,1,4
106390046,2025,10513,1,4
106390046,2025,2366,1,4
106390046,2025,1364,1,4
106390046,2025,7888,1,4
106390056,2025,833,1,2
106390056,2025,49,2,2
106390056,2025,248,2,2
106390056,2025,7660,1,4
106390056,2025,1163,1,2
106390056,2025,7952,1,4
106390056,2025,2877,1,2
106390056,2025,531,2,0
106390056,2025,1045,1,2
106390056,2025,2881,3,2
106390056,2025,10,6,8
106390056,2025,2706,1,4
106390056,2025,2224,2,4
106390056,2025,2232,1,4
106390056,2025,2885,1,2
106390056,2025,1763,1,4
106390056,2025,534,1,2
106390056,2025,2310,3,4
106390056,2025,197,1,2
106390056,2025,2840,1,4
106390056,2025,1543,3,4
106390056,2025,5270,1,2
106390056,2025,820,1,2
106390056,2025,225,1,6
106390056,2025,1798,1,4
106390056,2025,1413,1,4
106390056,2025,815,1,4
106390056,2025,1415,3,4
106390056,2025,348,1,3
106390056,2025,8334,1,3
106390056,2025,169,1,5
106390056,2025,2436,3,3
106390056,2025,2856,1,2
106390056,2025,2917,1,5
106390056,2025,3656,1,3
106390056,2025,4432,1,3
106390056,2025,5542,1,5
106390056,2025,2855,1,2
106390056,2025,4973,1,2
106390056,2025,209,1,2
106390056,2025,3881,1,4
106390056,2025,79,1,4
106390056,2025,1773,1,4
106390056,2025,2340,1,4
106390056,2025,178,3,2
106390056,2025,26,1,4
106390056,2025,1062,1,2
106390056,2025,2243,1,2
106390056,2025,932,1,2
106390056,2025,2860,1,4
106390056,2025,2849,1,4
106390056,2025,85,1,4
106390056,2025,87,1,2
106390056,2025,2864,1,2
106390056,2025,324,1,0
106390056,2025,1099,1,4
106390056,2025,2754,1,2
106390056,2025,4796,1,4
106390056,2025,221,1,4
106390056,2025,3675,1,2
106390056,2025,2553,1,4
106390069,2025,811,1,4
106390069,2025,4666,1,4
106390069,2025,5860,1,4
106390069,2025,2167,1,4
106390069,2025,4935,1,4
106390069,2025,2794,1,4
106390069,2025,10965,1,4
106390069,2025,1135,1,4
106390069,2025,1798,1,4
106390069,2025,6080,1,4
106390069,2025,1792,1,4
106390069,2025,169,1,5
106390069,2025,2825,1,4
106390069,2025,3403,1,4
106390069,2025,1383,1,4
106390069,2025,3149,1,4
106390069,2025,2752,1,4
106390069,2025,11113,1,4
106390069,2025,1311,1,4
106390069,2025,2757,1,4
106390069,2025,1979,1,4
106390069,2025,10,4,8
106390069,2025,4650,1,4
106390069,2025,3816,1,4
106390069,2025,1790,1,4
106390069,2025,2804,1,4
106390069,2025,1072,1,0
106390069,2025,863,1,4
106390073,2025,2967,1,4
106390073,2025,5208,1,4
106390073,2025,3455,1,0
106390073,2025,4820,1,4
106390073,2025,10774,1,0
106390073,2025,293,1,4
106390073,2025,2666,1,4
106390073,2025,1161,1,4
106390073,2025,2553,1,4
106390073,2025,4864,1,4
106390073,2025,2040,1,4
106390073,2025,1790,1,4
106390073,2025,9951,1,4
106390073,2025,1726,1,4
106390073,2025,2805,1,4
106390073,2025,1733,1,4
106390073,2025,1628,1,4
106390073,2025,3963,1,4
106390073,2025,2425,1,0
106390073,2025,2706,1,4
106390073,2025,4260,1,4
106390073,2025,3366,1,4
106390073,2025,59,1,4
106390073,2025,4015,2,4
106390073,2025,5939,1,4
106390073,2025,2794,1,4
106390073,2025,2427,1,0
106390073,2025,120,2,4
106390073,2025,2171,1,4
106390073,2025,1527,1,4
106390073,2025,910,1,4
106390073,2025,2431,1,4
106390073,2025,2320,1,4
106390073,2025,200,1,4
106390073,2025,4173,1,4
106390073,2025,1948,1,4
106390073,2025,7171,1,5
106390073,2025,4502,1,5
106390073,2025,7261,1,5
106390073,2025,6336,1,5
106390073,2025,3881,1,4
106390073,2025,5105,1,4
106390073,2025,2313,1,4
106390073,2025,10,7,8
106390073,2025,1611,1,4
106390073,2025,2682,1,4
106390073,2025,1612,1,2
106390073,2025,2800,1,4
106390073,2025,4093,1,4
106390073,2025,2093,1,4
106390073,2025,1751,1,4
106390073,2025,2203,1,4
106390073,2025,4688,1,4
106390073,2025,1963,1,4
106390077,2025,1132,1,4
106390077,2025,568,1,4
106390077,2025,1297,1,4
106390077,2025,10579,1,4
106390077,2025,5821,1,4
106390077,2025,7558,1,4
106390077,2025,1733,1,4
106390077,2025,3963,1,4
106390077,2025,5860,1,4
106390077,2025,1942,1,0
106390077,2025,10,6,8
106390077,2025,2480,1,4
106390077,2025,5880,1,4
106390077,2025,5931,1,4
106390077,2025,11630,1,4
106390077,2025,5949,1,4
106390077,2025,12335,1,4
106390077,2025,3967,1,0
106390077,2025,1948,1,4
106390077,2025,913,1,5
106390077,2025,4352,1,5
106390077,2025,3354,1,4
106390077,2025,4502,2,5
106390077,2025,1682,1,5
106390077,2025,380,1,5
106390077,2025,4267,1,4
106390077,2025,4150,1,4
106390077,2025,2612,1,4
106390077,2025,9942,1,4
106390077,2025,7838,1,4
106390077,2025,2592,1,4
106390077,2025,10431,1,4
106390077,2025,3510,1,4
106390077,2025,970,1,4
106390077,2025,1777,1,4
106390077,2025,1616,1,4
106390077,2025,6619,1,4
106390077,2025,12336,1,4
106390077,2025,1504,1,4
106390077,2025,1979,1,4
106390077,2025,9999,1,4
106390077,2025,621,1,4
106390077,2025,1571,1,4
106390077,2025,11566,1,4
106390077,2025,3977,1,4
106390077,2025,408,1,4
106390078,2025,1782,1,4
106390078,2025,1812,1,4
106390078,2025,143,1,2
106390078,2025,2804,1,4
106390078,2025,862,1,2
106390078,2025,2735,1,2
106390078,2025,7660,1,4
106390078,2025,0,1,4
106390078,2025,3866,1,2
106390078,2025,1645,1,4
106390078,2025,4099,1,4
106390078,2025,2540,1,4
106390078,2025,906,1,4
106390078,2025,531,1,0
106390078,2025,2881,1,2
106390078,2025,2706,1,4
106390078,2025,163,1,2
106390078,2025,2232,1,4
106390078,2025,2310,3,4
106390078,2025,199,1,4
106390078,2025,1543,2,4
106390078,2025,907,1,4
106390078,2025,1412,1,2
106390078,2025,820,1,2
106390078,2025,3160,1,2
106390078,2025,7924,1,4
106390078,2025,1415,2,4
106390078,2025,4830,1,3
106390078,2025,3988,1,5
106390078,2025,1083,1,3
106390078,2025,2311,1,3
106390078,2025,209,1,2
106390078,2025,10,2,8
106390078,2025,3881,2,4
106390078,2025,1773,1,4
106390078,2025,82,1,4
106390078,2025,3668,1,4
106390078,2025,4490,1,4
106390078,2025,87,2,2
106390078,2025,219,1,2
106390078,2025,2169,1,4
106390078,2025,3593,1,2
106390078,2025,2896,1,2
106390078,2025,1402,1,2
106390078,2025,280,1,4
106390115,2025,3416,1,4
106390115,2025,12337,1,4
106390115,2025,3112,1,4
106390115,2025,4923,1,4
106390115,2025,633,1,4
106390115,2025,3047,1,4
106390115,2025,10796,1,4
106390115,2025,1625,1,4
106390115,2025,902,1,4
106390115,2025,12338,1,4
106390115,2025,5095,1,4
106390115,2025,5822,1,4
106390115,2025,2425,1,0
106390115,2025,2171,1,4
106390115,2025,1850,1,4
106390115,2025,1544,1,4
106390115,2025,1202,1,4
106390115,2025,3016,1,4
106390115,2025,1415,1,4
106390115,2025,2248,1,4
106390115,2025,8235,1,5
106390115,2025,4099,1,4
106390115,2025,3145,1,4
106390115,2025,1222,1,0
106390115,2025,1374,1,4
106390115,2025,8317,1,4
106390115,2025,4029,1,4
106390115,2025,5250,1,4
106390115,2025,1095,1,4
106390115,2025,4840,1,4
106390115,2025,3062,1,4
106390115,2025,1792,1,4
106390115,2025,10,5,8
106390115,2025,2114,1,4
106390115,2025,3510,1,4
106390115,2025,3064,1,4
106390115,2025,840,1,4
106390150,2025,2804,1,4
106390150,2025,2560,1,4
106390150,2025,1798,1,4
106390150,2025,2247,1,4
106390150,2025,8428,1,5
106390150,2025,5595,1,4
106390150,2025,1742,1,4
106390150,2025,2825,1,4
106390150,2025,2800,1,4
106390150,2025,3251,1,4
106390150,2025,5084,1,4
106390150,2025,3778,1,4
106390150,2025,2572,1,4
106390150,2025,2574,1,4
106390150,2025,1979,1,4
106390150,2025,1792,1,4
106390150,2025,1945,1,4
106390150,2025,10,1,8
106390150,2025,235,1,4
106390150,2025,4650,1,4
106390150,2025,840,1,4
106390150,2025,6869,1,4
106390157,2025,1733,1,4
106390157,2025,2886,1,4
106390157,2025,1527,1,4
106390157,2025,2914,1,4
106390157,2025,2605,1,4
106390157,2025,2172,1,4
106390157,2025,1948,2,4
106390157,2025,12339,1,1
106390157,2025,2751,1,2
106390157,2025,2802,1,4
106390157,2025,10,3,8
106390157,2025,2757,1,4
106390157,2025,1753,1,4
106390157,2025,1811,1,4
106390157,2025,2409,1,4
106390157,2025,12323,1,4
106390157,2025,1345,1,4
106390157,2025,1328,1,4
106390157,2025,2519,1,4
106390164,2025,3330,1,4
106390164,2025,11051,1,4
106390164,2025,57,1,4
106390164,2025,994,1,4
106390164,2025,10790,1,4
106390164,2025,3726,1,4
106390164,2025,2172,1,4
106390164,2025,998,1,4
106390164,2025,2048,1,4
106390164,2025,1948,1,4
106390164,2025,10,3,8
106390164,2025,1203,1,4
106390164,2025,6068,1,4
106390164,2025,8108,1,5
106390164,2025,7140,1,5
106390164,2025,7141,1,5
106390164,2025,4383,1,4
106390164,2025,1613,2,4
106390164,2025,1616,1,4
106390164,2025,11792,1,4
106390164,2025,4207,1,4
106390164,2025,1809,1,4
106390164,2025,6691,1,4
106390164,2025,3758,1,0
106390164,2025,1841,1,4
106390164,2025,12340,1,4
106390164,2025,861,1,4
106390164,2025,1072,1,0
106390164,2025,2693,1,4
106390171,2025,4416,1,4
106390171,2025,1693,1,4
106390171,2025,6852,1,4
106390171,2025,8931,1,4
106390171,2025,6925,1,4
106390171,2025,4244,1,4
106390171,2025,7042,1,4
106390171,2025,4108,1,4
106390171,2025,4633,1,4
106390171,2025,4212,1,4
106390171,2025,4099,1,4
106390171,2025,8803,2,4
106390171,2025,2519,1,4
106390171,2025,2008,1,4
106390171,2025,4015,1,4
106390171,2025,9948,1,4
106390171,2025,1798,2,4
106390171,2025,6068,1,4
106390171,2025,4124,1,4
106390171,2025,2767,1,4
106390171,2025,8844,1,4
106390171,2025,4467,1,4
106390171,2025,598,1,4
106390171,2025,10926,1,3
106390171,2025,10160,1,5
106390171,2025,2442,1,5
106390171,2025,5057,1,5
106390171,2025,6336,1,5
106390171,2025,1743,1,4
106390171,2025,8200,1,4
106390171,2025,210,1,2
106390171,2025,340,1,4
106390171,2025,10,12,8
106390171,2025,1020,1,4
106390171,2025,6619,1,4
106390171,2025,87,1,2
106390171,2025,6686,1,4
106390171,2025,1484,1,4
106390171,2025,1504,1,4
106390171,2025,3352,1,4
106390171,2025,1980,1,4
106390171,2025,5732,1,4
106390171,2025,3101,1,4
106390171,2025,3413,1,4
106390171,2025,2664,1,4
106390171,2025,2115,1,4
106390178,2025,1790,2,4
106390178,2025,4731,1,4
106390178,2025,4653,1,4
106390178,2025,5307,1,4
106390178,2025,3485,1,4
106390178,2025,4590,1,4
106390178,2025,2282,1,4
106390178,2025,1552,1,6
106390178,2025,1164,1,4
106390178,2025,5746,1,4
106390178,2025,3033,1,4
106390178,2025,1665,1,4
106390178,2025,4473,1,4
106390178,2025,1443,1,0
106390178,2025,9928,1,4
106390178,2025,7568,1,4
106390178,2025,641,2,4
106390178,2025,2044,1,4
106390178,2025,1563,1,4
106390178,2025,2970,1,4
106390178,2025,107,1,4
106390178,2025,503,1,4
106390178,2025,3434,1,4
106390178,2025,1764,1,4
106390178,2025,4230,1,4
106390178,2025,2563,1,4
106390178,2025,2400,1,5
106390178,2025,6170,1,5
106390178,2025,6181,1,7
106390178,2025,2742,1,5
106390178,2025,1423,1,5
106390178,2025,5206,1,4
106390178,2025,10,8,8
106390178,2025,5561,1,4
106390178,2025,1804,1,4
106390178,2025,1774,1,4
106390178,2025,8217,1,4
106390178,2025,1335,1,4
106390178,2025,2682,1,4
106390178,2025,334,1,4
106390178,2025,1510,1,4
106390178,2025,3404,1,4
106390178,2025,7709,1,4
106390178,2025,2535,1,4
106390178,2025,2752,1,4
106390178,2025,6596,1,4
106390178,2025,2187,1,4
106390178,2025,1962,1,0
106390178,2025,6676,1,4
106390178,2025,4538,1,4
106390178,2025,3754,1,4
106390178,2025,586,1,4
106390178,2025,1979,1,4
106390178,2025,6731,1,4
106390178,2025,10679,1,4
106390178,2025,4650,1,4
106390178,2025,3721,1,4
106390178,2025,1577,1,4
106390185,2025,6776,1,4
106390185,2025,6797,1,4
106390185,2025,860,1,4
106390185,2025,8281,2,4
106390185,2025,1362,1,4
106390185,2025,1640,1,4
106390185,2025,2804,1,4
106390185,2025,4493,1,4
106390185,2025,4255,1,4
106390185,2025,4821,1,4
106390185,2025,11184,1,4
106390185,2025,222,1,4
106390185,2025,1272,1,4
106390185,2025,5797,1,4
106390185,2025,3961,1,4
106390185,2025,10579,1,4
106390185,2025,4000,1,4
106390185,2025,8855,1,4
106390185,2025,4734,1,4
106390185,2025,869,1,4
106390185,2025,8184,1,4
106390185,2025,301,8,8
106390185,2025,4627,1,4
106390185,2025,1946,1,4
106390185,2025,7131,1,4
106390185,2025,2610,1,6
106390185,2025,1059,1,4
106390185,2025,3881,1,4
106390185,2025,1774,1,4
106390185,2025,4933,1,4
106390185,2025,1376,1,4
106390185,2025,4882,1,4
106390185,2025,10,12,8
106390185,2025,9155,1,4
106390185,2025,11005,1,4
106390185,2025,1020,1,4
106390185,2025,10964,1,4
106390185,2025,2783,1,4
106390185,2025,1143,1,4
106390185,2025,6731,1,4
106390185,2025,1809,4,4
106390185,2025,11814,1,4
106390185,2025,780,1,4
106390185,2025,266,1,4
106390185,2025,448,1,4
106390199,2025,7455,1,4
106390199,2025,9540,1,4
106390199,2025,2621,1,4
106390199,2025,4597,1,4
106390199,2025,1132,1,4
106390199,2025,4473,1,4
106390199,2025,3559,1,0
106390199,2025,3292,1,4
106390199,2025,3963,1,4
106390199,2025,1734,1,4
106390199,2025,1154,1,4
106390199,2025,1795,1,4
106390199,2025,1299,1,4
106390199,2025,4265,1,4
106390199,2025,1134,1,4
106390199,2025,11504,1,4
106390199,2025,1081,1,7
106390199,2025,6326,1,5
106390199,2025,3756,1,4
106390199,2025,3733,1,4
106390199,2025,9862,1,4
106390199,2025,1792,1,4
106390199,2025,1063,1,4
106390199,2025,972,1,4
106390199,2025,973,1,4
106390199,2025,6642,1,4
106390199,2025,1242,1,4
106390199,2025,6705,1,4
106390199,2025,2574,1,4
106390199,2025,950,1,4
106390199,2025,10,7,8
106390199,2025,1751,1,4
106390199,2025,3942,1,4
106390199,2025,2901,1,4
106390199,2025,1589,1,4
106390199,2025,840,1,4
106390206,2025,1841,1,4
106390206,2025,12112,1,4
106390206,2025,3009,1,4
106390206,2025,112,1,4
106390206,2025,12071,1,4
106390206,2025,4212,1,4
106390206,2025,3213,1,2
106390206,2025,4517,1,4
106390206,2025,4542,1,6
106390206,2025,2805,1,4
106390206,2025,1792,1,4
106390206,2025,1942,1,0
106390206,2025,2425,1,0
106390206,2025,12341,1,0
106390206,2025,2045,1,4
106390206,2025,2737,1,4
106390206,2025,2914,1,4
106390206,2025,2027,1,12
106390206,2025,2915,1,4
106390206,2025,3944,1,4
106390206,2025,1798,1,4
106390206,2025,10,5,8
106390206,2025,1127,1,4
106390206,2025,5104,1,0
106390206,2025,1948,1,4
106390206,2025,6068,1,4
106390206,2025,2632,1,6
106390206,2025,3589,1,5
106390206,2025,1059,1,4
106390206,2025,2467,1,4
106390206,2025,2509,1,4
106390206,2025,4613,1,4
106390206,2025,3300,2,4
106390206,2025,2199,1,4
106390206,2025,4536,1,4
106390206,2025,3499,1,4
106390206,2025,1807,1,4
106390206,2025,2094,1,4
106390206,2025,4780,1,4
106390206,2025,4949,1,4
106390206,2025,37,1,4
106390206,2025,1464,1,4
106390206,2025,242,1,4
106390206,2025,4010,1,4
106390213,2025,9736,1,4
106390213,2025,12342,1,4
106390213,2025,1874,1,4
106390213,2025,2519,1,4
106390213,2025,58,1,4
106390213,2025,1942,1,0
106390213,2025,10938,1,4
106390213,2025,114,1,4
106390213,2025,2603,1,4
106390213,2025,2950,1,4
106390213,2025,1935,1,4
106390213,2025,4265,1,4
106390213,2025,5239,1,4
106390213,2025,6107,1,1
106390213,2025,8814,1,5
106390213,2025,372,1,5
106390213,2025,7232,1,5
106390213,2025,8834,1,4
106390213,2025,2937,1,4
106390213,2025,3233,1,4
106390213,2025,2613,1,4
106390213,2025,10,4,8
106390213,2025,1979,1,4
106390213,2025,3795,1,4
106390213,2025,6775,1,4
106390213,2025,7446,1,4
106390213,2025,5392,1,4
106390213,2025,1842,1,4
106390213,2025,2366,1,4
106390220,2025,4797,1,4
106390220,2025,5228,1,4
106390220,2025,1320,1,4
106390220,2025,2480,1,4
106390220,2025,7566,1,4
106390220,2025,1848,1,4
106390220,2025,12343,1,4
106390220,2025,2044,1,4
106390220,2025,4015,1,4
106390220,2025,2462,1,4
106390220,2025,5095,1,4
106390220,2025,2913,1,4
106390220,2025,3798,2,4
106390220,2025,65,1,4
106390220,2025,1259,1,4
106390220,2025,10263,1,5
106390220,2025,6440,1,4
106390220,2025,1894,1,4
106390220,2025,1173,1,4
106390220,2025,5196,1,4
106390220,2025,151,1,4
106390220,2025,10,3,8
106390220,2025,6575,1,4
106390220,2025,7358,1,0
106390220,2025,934,1,4
106390220,2025,1482,1,4
106390220,2025,2141,1,0
106390220,2025,1752,1,0
106390220,2025,1770,1,4
106390220,2025,242,1,4
106390220,2025,1841,1,4
106390220,2025,4803,1,4
106390220,2025,1601,1,4
106390227,2025,6872,1,4
106390227,2025,2099,1,4
106390227,2025,2600,1,4
106390227,2025,1572,2,4
106390227,2025,3542,1,4
106390227,2025,5690,1,4
106390227,2025,4069,1,4
106390227,2025,1871,1,4
106390227,2025,2668,1,4
106390227,2025,3157,1,4
106390227,2025,2040,1,4
106390227,2025,12316,1,4
106390227,2025,1490,1,4
106390227,2025,1254,1,4
106390227,2025,3430,1,4
106390227,2025,3559,1,0
106390227,2025,5860,1,4
106390227,2025,1942,1,0
106390227,2025,2123,1,4
106390227,2025,12344,1,4
106390227,2025,12345,1,4
106390227,2025,2320,1,4
106390227,2025,3141,1,4
106390227,2025,1478,1,5
106390227,2025,7683,1,5
106390227,2025,10871,1,5
106390227,2025,3786,1,5
106390227,2025,9894,1,5
106390227,2025,2158,1,5
106390227,2025,2748,1,4
106390227,2025,2527,1,4
106390227,2025,82,1,4
106390227,2025,301,1,8
106390227,2025,1616,1,4
106390227,2025,1094,1,4
106390227,2025,3778,2,4
106390227,2025,4907,1,4
106390227,2025,2757,1,4
106390227,2025,1979,1,4
106390227,2025,10,7,8
106390227,2025,3353,1,4
106390227,2025,4346,1,4
106390227,2025,1811,1,4
106390227,2025,892,1,4