yop_kodu,year,lise_id,yerlesen_sayisi,school_type
106310016,2022,5333,1,4
106310016,2022,2,4,8
106310016,2022,7336,1,4
106310016,2022,2201,1,4
106310016,2022,1887,1,4
106310016,2022,5349,1,4
106310016,2022,12714,1,0
106310016,2022,9537,1,4
106310016,2022,2375,2,0
106310016,2022,2937,1,4
106310016,2022,285,1,4
106310016,2022,2264,1,4
106310016,2022,9948,1,4
106310016,2022,35,2,0
106310016,2022,7608,1,4
106310016,2022,5298,1,5
106310016,2022,1985,1,5
106310016,2022,3099,1,4
106310016,2022,1752,1,4
106310016,2022,2974,1,4
106310016,2022,1991,1,4
106310016,2023,2,8,8
106310016,2023,3475,1,4
106310016,2023,4976,1,4
106310016,2023,8292,1,4
106310016,2023,1523,1,4
106310016,2023,8524,1,4
106310016,2023,7138,1,4
106310016,2023,9537,1,4
106310016,2023,2375,2,0
106310016,2023,7845,1,4
106310016,2023,3425,1,4
106310016,2023,7608,1,4
106310016,2023,5491,1,5
106310016,2023,9183,1,5
106310016,2023,5394,2,4
106310016,2023,6840,1,4
106310016,2023,7766,1,4
106310016,2024,2817,1,4
106310016,2024,8283,1,4
106310016,2024,11784,1,4
106310016,2024,1623,2,4
106310016,2024,2801,1,4
106310016,2024,5363,1,4
106310016,2024,7376,1,4
106310016,2024,5910,1,4
106310016,2024,5282,1,4
106310016,2024,725,1,4
106310016,2024,13988,1,4
106310016,2024,11990,1,4
106310016,2024,6031,1,4
106310016,2024,3301,1,4
106310016,2024,3968,1,4
106310016,2024,2937,1,4
106310016,2024,7844,1,4
106310016,2024,381,1,4
106310016,2024,3755,1,4
106310016,2024,2908,1,4
106310016,2024,31,1,4
106310016,2024,623,1,4
106310016,2024,3426,1,0
106310016,2024,7468,1,4
106310016,2024,3704,1,4
106310016,2024,7251,1,4
106310016,2024,3853,1,4
106310016,2024,12386,1,5
106310016,2024,1139,1,5
106310016,2024,2310,1,5
106310016,2024,9183,1,5
106310016,2024,7269,1,5
106310016,2024,5333,2,4
106310016,2024,4261,1,5
106310016,2024,7287,1,4
106310016,2024,1826,1,4
106310016,2024,3296,1,4
106310016,2024,2362,1,4
106310016,2024,5672,1,4
106310016,2024,7302,1,4
106310016,2024,13608,1,4
106310016,2024,8443,1,4
106310016,2024,8444,1,4
106310016,2024,2,3,8
106310016,2024,7336,1,4
106310016,2024,1400,1,4
106310016,2024,1619,1,4
106310016,2024,3475,1,4
106310025,2022,5333,4,4
106310025,2022,2,3,8
106310025,2022,15,1,4
106310025,2022,5349,3,4
106310025,2022,2059,1,4
106310025,2022,3717,1,4
106310025,2022,6798,1,4
106310025,2022,8116,1,4
106310025,2022,3517,1,4
106310025,2022,35,1,0
106310025,2022,2822,1,4
106310025,2022,1097,1,4
106310025,2022,7251,1,4
106310025,2022,6335,1,4
106310025,2022,7471,1,5
106310025,2022,5740,1,5
106310025,2022,7074,1,5
106310025,2022,3928,1,5
106310025,2022,5730,1,5
106310025,2022,1615,1,5
106310025,2022,3625,1,5
106310025,2022,3259,1,5
106310025,2022,1370,1,4
106310025,2022,8443,1,4
106310025,2023,5333,1,4
106310025,2023,2,6,8
106310025,2023,7336,1,4
106310025,2023,5674,1,4
106310025,2023,2321,1,4
106310025,2023,1884,1,4
106310025,2023,1523,1,4
106310025,2023,4944,1,4
106310025,2023,3301,1,4
106310025,2023,2375,1,0
106310025,2023,13573,1,4
106310025,2023,1840,1,0
106310025,2023,8727,1,4
106310025,2023,2822,1,4
106310025,2023,2805,1,4
106310025,2023,6989,1,4
106310025,2023,5391,1,3
106310025,2023,9183,1,5
106310025,2023,4630,1,5
106310025,2023,801,1,4
106310025,2023,3660,1,4
106310025,2023,3741,1,4
106310025,2023,3493,1,4
106310025,2023,3296,1,4
106310025,2023,325,1,4
106310025,2023,3127,1,4
106310025,2024,5349,1,4
106310025,2024,3301,1,4
106310025,2024,2375,3,0
106310025,2024,1320,1,0
106310025,2024,1482,1,4
106310025,2024,1388,1,4
106310025,2024,7325,1,4
106310025,2024,2956,1,4
106310025,2024,15195,2,0
106310025,2024,7251,1,4
106310025,2024,3628,1,4
106310025,2024,7608,1,4
106310025,2024,2831,1,5
106310025,2024,3928,4,5
106310025,2024,10402,1,3
106310025,2024,5391,1,3
106310025,2024,5394,1,4
106310025,2024,737,1,4
106310025,2024,2362,3,4
106310025,2024,8443,1,4
106310025,2024,1806,1,0
106310025,2024,2,7,8
106310025,2024,7336,1,4
106310025,2024,9331,1,4
106310025,2024,3317,1,4
106310025,2024,8283,1,4
106310025,2024,827,1,4
106310061,2022,3628,1,4
106310061,2022,4464,1,4
106310061,2022,1071,1,4
106310061,2022,1504,1,4
106310061,2022,2,3,8
106310061,2022,7336,1,4
106310061,2022,13624,1,4
106310061,2022,532,1,4
106310061,2022,3220,1,4
106310061,2022,376,1,4
106310061,2022,2177,1,4
106310061,2022,4158,1,4
106310061,2022,4700,1,4
106310061,2022,2597,1,4
106310061,2022,12565,1,4
106310061,2022,1382,1,4
106310061,2022,7600,1,4
106310061,2022,5349,2,4
106310061,2022,13298,1,4
106310061,2022,13898,1,4
106310061,2022,5363,1,4
106310061,2022,10223,1,4
106310061,2022,2147,1,4
106310061,2022,5678,1,4
106310061,2022,3724,1,4
106310061,2022,2006,1,4
106310061,2022,1028,1,4
106310061,2022,3301,1,4
106310061,2022,3968,1,4
106310061,2022,2937,1,4
106310061,2022,9942,1,4
106310061,2022,1817,1,4
106310061,2022,15196,1,4
106310061,2022,6798,2,4
106310061,2022,184,1,4
106310061,2022,9948,1,4
106310061,2022,35,4,0
106310061,2022,15195,1,0
106310061,2022,7505,1,4
106310061,2022,14807,1,5
106310061,2022,2310,1,5
106310061,2022,3243,1,5
106310061,2022,1615,1,5
106310061,2022,6861,1,4
106310061,2022,2925,1,4
106310061,2022,55,1,4
106310061,2022,97,1,4
106310061,2022,8420,1,4
106310061,2022,6251,1,4
106310061,2022,1370,1,4
106310061,2022,2699,1,4
106310061,2022,12769,1,4
106310061,2022,2362,1,4
106310061,2022,2348,1,4
106310061,2022,7024,1,4
106310061,2023,2,10,8
106310061,2023,2394,1,4
106310061,2023,5674,1,4
106310061,2023,1619,1,4
106310061,2023,2078,2,4
106310061,2023,4158,1,4
106310061,2023,215,1,4
106310061,2023,8260,1,4
106310061,2023,4905,1,4
106310061,2023,4865,1,4
106310061,2023,2201,1,4
106310061,2023,12984,1,4
106310061,2023,9147,1,4
106310061,2023,9243,1,4
106310061,2023,7032,1,4
106310061,2023,8505,2,4
106310061,2023,7071,1,4
106310061,2023,5349,1,4
106310061,2023,2819,1,4
106310061,2023,5363,1,4
106310061,2023,2059,1,4
106310061,2023,1992,1,4
106310061,2023,3968,1,4
106310061,2023,2375,1,0
106310061,2023,13589,1,4
106310061,2023,2937,1,4
106310061,2023,9658,1,4
106310061,2023,2828,2,4
106310061,2023,31,1,4
106310061,2023,14202,1,4
106310061,2023,2758,1,4
106310061,2023,15197,1,4
106310061,2023,7505,1,4
106310061,2023,977,1,4
106310061,2023,7608,3,4
106310061,2023,8357,1,4
106310061,2023,7757,1,4
106310061,2023,2425,1,4
106310061,2023,3658,1,4
106310061,2023,5127,1,5
106310061,2023,5970,1,4
106310061,2023,589,1,2
106310061,2023,7879,1,4
106310061,2023,14280,1,4
106310061,2023,2699,1,4
106310061,2023,7883,1,4
106310061,2023,3296,3,4
106310061,2023,2362,1,4
106310061,2024,3299,1,4
106310061,2024,4621,1,0
106310061,2024,14278,1,4
106310061,2024,3301,1,4
106310061,2024,6474,1,4
106310061,2024,10484,1,5
106310061,2024,12580,1,3
106310061,2024,3846,1,4
106310061,2024,3526,1,4
106310061,2024,14609,1,4
106310061,2024,6687,1,4
106310061,2024,9374,1,4
106310061,2024,9868,1,4
106310061,2024,6972,1,4
106310061,2024,5477,1,4
106310061,2024,8857,1,4
106310061,2024,8443,1,4
106310061,2024,64,1,4
106310061,2024,2,7,8
106310061,2024,4123,1,4
106310061,2024,1377,1,4
106310061,2024,2663,1,4
106310061,2024,8283,1,4
106310061,2024,8041,1,4
106310061,2024,1833,1,4
106310088,2022,3628,1,4
106310088,2022,2,6,8
106310088,2022,1505,1,4
106310088,2022,8009,1,4
106310088,2022,3090,1,4
106310088,2022,2950,2,4
106310088,2022,4158,1,4
106310088,2022,5142,1,4
106310088,2022,626,1,4
106310088,2022,170,1,4
106310088,2022,695,1,4
106310088,2022,2181,1,4
106310088,2022,8050,1,4
106310088,2022,646,1,4
106310088,2022,5349,1,4
106310088,2022,1338,1,4
106310088,2022,11887,1,4
106310088,2022,2059,1,4
106310088,2022,2465,1,4
106310088,2022,1889,1,4
106310088,2022,1191,1,4
106310088,2022,1478,1,4
106310088,2022,9537,3,4
106310088,2022,2375,2,0
106310088,2022,3407,1,4
106310088,2022,6798,1,4
106310088,2022,545,1,4
106310088,2022,7608,1,4
106310088,2022,9799,2,4
106310088,2022,1323,1,4
106310088,2022,2234,1,5
106310088,2022,9492,1,1
106310088,2022,12532,2,4
106310088,2022,3491,1,4
106310088,2022,3857,2,4
106310088,2022,12626,1,4
106310088,2022,2911,1,4
106310088,2022,3470,1,4
106310088,2022,1008,1,4
106310088,2022,8424,1,4
106310088,2022,2410,1,4
106310088,2022,1243,1,4
106310088,2022,2387,1,4
106310088,2022,1988,1,4
106310088,2022,2741,1,4
106310088,2022,2362,1,4
106310088,2022,8228,1,4
106310088,2022,8232,1,4
106310088,2022,1375,1,4
106310088,2022,8443,1,4
106310088,2023,5333,1,4
106310088,2023,2,5,8
106310088,2023,2946,1,4
106310088,2023,2333,1,0
106310088,2023,1636,1,4
106310088,2023,12581,1,4
106310088,2023,1275,1,4
106310088,2023,7555,1,4
106310088,2023,4094,1,4
106310088,2023,9781,1,4
106310088,2023,1623,2,4
106310088,2023,173,1,4
106310088,2023,7031,1,4
106310088,2023,2801,1,4
106310088,2023,5349,1,4
106310088,2023,8510,1,4
106310088,2023,13898,1,4
106310088,2023,4867,1,4
106310088,2023,828,1,4
106310088,2023,11285,1,4
106310088,2023,631,1,4
106310088,2023,13538,1,4
106310088,2023,3423,1,4
106310088,2023,8091,1,4
106310088,2023,3301,2,4
106310088,2023,2375,2,0
106310088,2023,2937,1,4
106310088,2023,12735,1,4
106310088,2023,2339,1,4
106310088,2023,7933,1,4
106310088,2023,746,1,4
106310088,2023,6218,1,4
106310088,2023,5523,1,4
106310088,2023,1485,1,4
106310088,2023,470,1,4
106310088,2023,7608,1,4
106310088,2023,9799,1,4
106310088,2023,3711,1,4
106310088,2023,2310,1,5
106310088,2023,4777,1,5
106310088,2023,2383,1,4
106310088,2023,712,1,4
106310088,2023,638,1,4
106310088,2023,12526,1,0
106310088,2023,804,1,4
106310088,2023,6840,3,4
106310088,2023,3397,1,2
106310088,2023,2099,1,4
106310088,2023,2741,1,4
106310088,2023,2362,2,4
106310088,2023,2101,1,4
106310088,2023,1683,2,4
106310088,2023,8443,1,4
106310088,2024,7031,1,4
106310088,2024,7166,1,4
106310088,2024,7908,1,4
106310088,2024,5349,1,4
106310088,2024,4665,1,4
106310088,2024,9917,1,4
106310088,2024,7347,1,4
106310088,2024,13418,1,4
106310088,2024,648,1,4
106310088,2024,3968,1,4
106310088,2024,2,4,8
106310088,2024,2208,1,4
106310088,2024,14684,1,4
106310088,2024,3446,1,4
106310088,2024,650,1,4
106310088,2024,6218,1,4
106310088,2024,9183,1,5
106310088,2024,3027,1,4
106310088,2024,1598,1,4
106310088,2024,3810,1,4
106310088,2024,135,1,4
106310088,2024,1103,1,4
106310088,2024,4815,1,0
106310088,2024,1619,1,4
106310088,2024,8021,1,4
106310088,2024,9892,1,4
106310088,2024,4906,1,4
106310088,2024,3317,1,4
106310104,2022,3628,2,4
106310104,2022,1904,1,4
106310104,2022,2,7,8
106310104,2022,5621,1,4
106310104,2022,3032,1,4
106310104,2022,2078,1,4
106310104,2022,332,1,4
106310104,2022,6429,2,4
106310104,2022,1623,1,4
106310104,2022,2323,1,4
106310104,2022,3724,1,4
106310104,2022,7061,1,4
106310104,2022,5414,1,4
106310104,2022,13942,1,4
106310104,2022,3717,2,4
106310104,2022,1107,1,4
106310104,2022,4063,1,4
106310104,2022,9537,2,4
106310104,2022,3968,1,4
106310104,2022,2375,1,0
106310104,2022,2149,1,4
106310104,2022,6798,1,4
106310104,2022,35,1,0
106310104,2022,7608,1,4
106310104,2022,6368,1,4
106310104,2022,3960,1,5
106310104,2022,14632,1,1
106310104,2022,13364,1,5
106310104,2022,3928,1,5
106310104,2022,3191,1,5
106310104,2022,2524,1,5
106310104,2022,9492,1,1
106310104,2022,1693,1,4
106310104,2022,4198,1,4
106310104,2022,8806,1,4
106310104,2022,14279,1,4
106310104,2022,4061,1,4
106310104,2022,9384,1,4
106310104,2022,3452,1,4
106310104,2022,3548,1,4
106310104,2022,207,1,4
106310104,2022,3296,4,4
106310104,2022,8431,1,4
106310104,2022,135,1,4
106310104,2022,8228,1,4
106310104,2022,7022,1,4
106310104,2022,3187,1,4
106310104,2022,13651,1,4
106310104,2022,8443,1,4
106310104,2023,2,12,8
106310104,2023,2946,1,4
106310104,2023,7787,1,4
106310104,2023,8015,1,4
106310104,2023,6348,1,4
106310104,2023,2749,1,4
106310104,2023,4905,1,4
106310104,2023,9331,2,4
106310104,2023,1404,1,4
106310104,2023,3768,1,4
106310104,2023,7031,1,4
106310104,2023,5143,1,4
106310104,2023,8505,1,4
106310104,2023,7071,1,4
106310104,2023,8513,1,4
106310104,2023,197,1,4
106310104,2023,1477,1,4
106310104,2023,14404,1,4
106310104,2023,3301,1,4
106310104,2023,2375,3,0
106310104,2023,13573,1,4
106310104,2023,6488,1,4
106310104,2023,675,2,4
106310104,2023,746,1,4
106310104,2023,6218,1,4
106310104,2023,11934,1,4
106310104,2023,8129,1,4
106310104,2023,7608,1,4
106310104,2023,9799,1,4
106310104,2023,8584,1,5
106310104,2023,555,1,5
106310104,2023,9183,1,5
106310104,2023,12532,1,4
106310104,2023,3857,1,4
106310104,2023,6249,1,4
106310104,2023,473,1,4
106310104,2023,6484,1,4
106310104,2023,13391,1,4
106310104,2023,6685,1,4
106310104,2023,3721,1,4
106310104,2023,6770,1,4
106310104,2023,618,1,4
106310104,2023,3181,1,4
106310104,2023,2974,1,4
106310104,2023,3296,1,4
106310104,2023,8431,1,4
106310104,2023,3496,1,4
106310104,2023,2362,1,4
106310104,2023,1683,1,4
106310104,2024,1356,1,4
106310104,2024,6491,1,4
106310104,2024,12774,1,4
106310104,2024,4113,1,4
106310104,2024,6753,1,4
106310104,2024,14930,1,4
106310104,2024,6071,1,4
106310104,2024,3423,1,4
106310104,2024,1625,1,4
106310104,2024,3301,1,4
106310104,2024,623,1,4
106310104,2024,2375,1,0
106310104,2024,3388,1,4
106310104,2024,2208,1,4
106310104,2024,8962,1,4
106310104,2024,11383,1,5
106310104,2024,8159,1,5
106310104,2024,11056,1,1
106310104,2024,5370,1,4
106310104,2024,2407,1,4
106310104,2024,567,1,4
106310104,2024,2,3,8
106310104,2024,2362,1,4
106310104,2024,7022,1,4
106310104,2024,2590,1,4
106310104,2024,3010,1,4
106310104,2024,4814,1,4
106310104,2024,806,1,4
106310104,2024,4905,1,4
106310104,2024,9892,1,4
106310113,2022,5333,1,4
106310113,2022,2,2,8
106310113,2022,694,1,4
106310113,2022,3154,1,4
106310113,2022,5656,1,4
106310113,2022,2431,1,4
106310113,2022,2078,2,4
106310113,2022,268,1,4
106310113,2022,4524,1,2
106310113,2022,3459,1,4
106310113,2022,7071,1,4
106310113,2022,5349,1,4
106310113,2022,956,1,4
106310113,2022,11887,1,4
106310113,2022,4034,1,4
106310113,2022,6041,1,4
106310113,2022,2375,2,0
106310113,2022,3446,1,4
106310113,2022,6218,1,4
106310113,2022,1928,1,4
106310113,2022,2822,1,4
106310113,2022,11754,1,5
106310113,2022,9675,1,5
106310113,2022,5,1,5
106310113,2022,2513,1,5
106310113,2022,10665,1,1
106310113,2022,6188,1,5
106310113,2022,5180,1,5
106310113,2022,11145,1,1
106310113,2022,4262,1,5
106310113,2022,3260,1,5
106310113,2022,5370,1,4
106310113,2022,4367,2,4
106310113,2022,7117,1,4
106310113,2022,5372,1,4
106310113,2022,8211,1,4
106310113,2022,8431,1,4
106310113,2023,3455,1,4
106310113,2023,2,6,8
106310113,2023,945,1,4
106310113,2023,1383,1,4
106310113,2023,2801,1,4
106310113,2023,5349,1,4
106310113,2023,2373,1,4
106310113,2023,1028,1,4
106310113,2023,883,1,4
106310113,2023,3301,1,4
106310113,2023,3968,1,4
106310113,2023,2375,1,0
106310113,2023,381,1,4
106310113,2023,2708,1,4
106310113,2023,2336,1,4
106310113,2023,1817,1,4
106310113,2023,3517,1,4
106310113,2023,1485,1,4
106310113,2023,7348,1,5
106310113,2023,11517,1,5
106310113,2023,8584,1,5
106310113,2023,10340,1,5
106310113,2023,9383,1,1
106310113,2023,3928,1,5
106310113,2023,11472,1,3
106310113,2023,12793,1,1
106310113,2023,5394,1,4
106310113,2023,2825,1,2
106310113,2023,474,1,4
106310113,2023,2838,1,4
106310113,2023,6840,1,4
106310113,2023,2194,1,4
106310113,2023,387,1,4
106310113,2023,7603,1,4
106310113,2023,1149,1,4
106310113,2023,5854,1,4
106310113,2024,23,1,4
106310113,2024,668,1,4
106310113,2024,3301,1,4
106310113,2024,3968,1,4
106310113,2024,2937,1,4
106310113,2024,1032,1,4
106310113,2024,3464,1,4
106310113,2024,3446,1,4
106310113,2024,2309,1,4
106310113,2024,266,1,4
106310113,2024,2,7,8
106310113,2024,7608,1,4
106310113,2024,3291,1,5
106310113,2024,11204,1,5
106310113,2024,11472,2,3
106310113,2024,6591,1,5
106310113,2024,12793,2,1
106310113,2024,2832,1,5
106310113,2024,2214,1,4
106310113,2024,7173,1,4
106310113,2024,3000,1,4
106310113,2024,4373,1,4
106310113,2024,477,1,4
106310113,2024,4038,1,4
106310113,2024,227,2,4
106310113,2024,452,1,4
106310113,2024,4954,1,4
106310113,2024,1468,1,4
106310113,2024,2201,1,4
106310113,2024,4561,1,4
106310113,2024,1523,1,4
106310113,2024,3483,1,4
106310149,2024,14411,1,0
106310149,2024,13765,1,4
106310149,2024,2375,1,0
106310149,2024,8962,1,4
106310149,2024,35,1,0
106310149,2024,5614,1,5
106310149,2024,4009,1,5
106310149,2024,8181,1,4
106310149,2024,3846,1,4
106310149,2024,1370,1,4
106310149,2024,5333,1,4
106310149,2024,2362,1,4
106310149,2024,6923,1,4
106310149,2024,8443,1,4
106310149,2024,2,2,8
106310149,2024,2331,1,4
106310149,2024,9326,1,4
106310149,2024,9850,1,4
106310149,2024,10077,1,4
106310149,2024,5349,1,4
106310149,2024,6340,1,4
106310167,2022,2,7,8
106310167,2022,688,1,4
106310167,2022,6433,1,4
106310167,2022,13624,1,4
106310167,2022,5674,1,4
106310167,2022,506,1,4
106310167,2022,3815,1,4
106310167,2022,8015,1,4
106310167,2022,3020,1,4
106310167,2022,3357,1,4
106310167,2022,7571,1,4
106310167,2022,9331,1,4
106310167,2022,2201,1,4
106310167,2022,8688,1,4
106310167,2022,4040,1,4
106310167,2022,3771,1,4
106310167,2022,366,1,4
106310167,2022,5349,2,4
106310167,2022,8513,1,4
106310167,2022,12676,1,4
106310167,2022,3285,1,4
106310167,2022,6544,1,4
106310167,2022,13769,1,4
106310167,2022,3164,1,4
106310167,2022,1361,1,4
106310167,2022,9537,5,4
106310167,2022,3301,1,4
106310167,2022,3968,3,4
106310167,2022,2375,1,0
106310167,2022,6255,1,4
106310167,2022,12505,1,4
106310167,2022,5540,1,4
106310167,2022,8546,2,4
106310167,2022,8550,1,4
106310167,2022,2209,1,4
106310167,2022,5342,1,4
106310167,2022,35,1,0
106310167,2022,15195,1,0
106310167,2022,2822,1,4
106310167,2022,9422,1,1
106310167,2022,9675,1,5
106310167,2022,15198,1,1
106310167,2022,3928,1,5
106310167,2022,187,1,5
106310167,2022,6524,1,5
106310167,2022,5394,1,4
106310167,2022,8622,1,4
106310167,2022,1237,1,5
106310167,2022,151,1,4
106310167,2022,2387,1,4
106310167,2022,227,1,4
106310167,2022,2362,1,4
106310167,2022,13544,1,4
106310167,2022,2348,1,4
106310167,2022,5512,1,4
106310167,2022,2719,1,4
106310167,2022,8840,1,4
106310167,2022,12110,1,4
106310167,2023,834,1,4
106310167,2023,4464,1,4
106310167,2023,2,16,8
106310167,2023,5943,1,4
106310167,2023,1619,1,4
106310167,2023,4905,3,4
106310167,2023,2396,1,4
106310167,2023,2364,1,4
106310167,2023,10254,1,4
106310167,2023,2415,1,4
106310167,2023,12565,1,4
106310167,2023,8283,1,4
106310167,2023,7166,1,4
106310167,2023,8505,1,4
106310167,2023,6753,1,4
106310167,2023,9597,1,4
106310167,2023,5349,1,4
106310167,2023,1338,1,4
106310167,2023,4162,1,4
106310167,2023,367,1,4
106310167,2023,3301,3,4
106310167,2023,3968,1,4
106310167,2023,11121,1,0
106310167,2023,2336,1,4
106310167,2023,2208,1,4
106310167,2023,1820,1,4
106310167,2023,2065,1,4
106310167,2023,2377,1,4
106310167,2023,8563,1,4
106310167,2023,35,1,0
106310167,2023,1630,1,4
106310167,2023,767,1,4
106310167,2023,7608,1,4
106310167,2023,10558,1,5
106310167,2023,10338,1,5
106310167,2023,2093,1,5
106310167,2023,45,1,5
106310167,2023,5394,1,4
106310167,2023,4441,2,0
106310167,2023,2714,1,0
106310167,2023,920,1,4
106310167,2023,5372,1,4
106310167,2023,4105,1,4
106310167,2023,6840,1,4
106310167,2023,6242,1,4
106310167,2023,7361,1,4
106310167,2023,7981,1,4
106310167,2023,2362,1,4
106310167,2023,7886,1,4
106310167,2023,8232,1,4
106310167,2023,782,1,4
106310167,2023,1991,1,4
106310167,2023,8443,1,4
106310167,2023,8446,1,4
106310167,2024,9331,1,4
106310167,2024,12719,1,4
106310167,2024,2241,1,4
106310167,2024,7166,1,4
106310167,2024,1523,1,4
106310167,2024,389,1,4
106310167,2024,7454,1,0
106310167,2024,4516,1,4
106310167,2024,2954,1,4
106310167,2024,12714,1,0
106310167,2024,7335,1,4
106310167,2024,3363,1,4
106310167,2024,1251,1,4
106310167,2024,13538,1,4
106310167,2024,669,1,4
106310167,2024,2375,2,0
106310167,2024,2937,1,4
106310167,2024,8546,1,4
106310167,2024,2339,1,4
106310167,2024,3485,1,4
106310167,2024,13454,1,4
106310167,2024,2,5,8
106310167,2024,3446,1,4
106310167,2024,8963,1,4
106310167,2024,15195,1,0
106310167,2024,7608,1,4
106310167,2024,6109,1,3
106310167,2024,10288,1,5
106310167,2024,7074,1,5
106310167,2024,4692,1,5
106310167,2024,3641,1,5
106310167,2024,5317,1,4
106310167,2024,328,1,4
106310167,2024,6861,1,4
106310167,2024,9040,1,4
106310167,2024,4367,1,4
106310167,2024,3000,1,4
106310167,2024,1752,1,4
106310167,2024,8813,1,4
106310167,2024,3296,1,4
106310167,2024,6908,1,4
106310167,2024,2717,1,4
106310167,2024,532,1,4
106310167,2024,2950,1,4
106310167,2024,4905,1,4
106310167,2024,9239,1,4
106310167,2024,6334,1,4
106310176,2022,5333,1,4
106310176,2022,2,6,8
106310176,2022,1354,1,0
106310176,2022,2177,1,4
106310176,2022,268,1,4
106310176,2022,15092,1,4
106310176,2022,9597,1,4
106310176,2022,1339,1,4
106310176,2022,11384,1,4
106310176,2022,5253,1,0
106310176,2022,2375,1,0
106310176,2022,650,1,4
106310176,2022,15195,1,0
106310176,2022,7608,1,4
106310176,2022,8981,1,4
106310176,2022,7395,1,5
106310176,2022,9183,1,5
106310176,2022,3191,1,5
106310176,2022,11145,1,1
106310176,2022,3669,1,4
106310176,2022,3296,1,4
106310176,2023,2,4,8
106310176,2023,625,1,4
106310176,2023,7641,1,4
106310176,2023,7081,1,4
106310176,2023,4974,1,4
106310176,2023,4905,1,4
106310176,2023,12297,1,4
106310176,2023,4113,1,4
106310176,2023,7071,1,4
106310176,2023,7259,1,4
106310176,2023,1927,1,4
106310176,2023,4963,1,4
106310176,2023,7557,1,4
106310176,2023,9537,1,4
106310176,2023,4179,1,4
106310176,2023,5342,1,4
106310176,2023,12050,1,4
106310176,2023,8973,1,4
106310176,2023,8360,1,4
106310176,2023,11024,1,5
106310176,2023,2310,1,5
106310176,2023,10305,1,5
106310176,2023,6550,1,5
106310176,2023,12260,1,4
106310176,2023,5974,1,4
106310176,2023,803,1,4
106310176,2023,2429,1,4
106310176,2023,3180,1,4
106310176,2023,1546,1,4
106310176,2023,8217,1,4
106310176,2023,8851,1,4
106310176,2023,326,1,4
106310176,2023,8443,1,4
106310176,2023,7012,1,4
106310176,2024,7845,1,4
106310176,2024,9658,1,4
106310176,2024,7325,1,4
106310176,2024,545,1,4
106310176,2024,675,1,4
106310176,2024,9548,1,5
106310176,2024,3620,1,5
106310176,2024,10825,1,5
106310176,2024,2153,1,1
106310176,2024,11461,1,5
106310176,2024,2,8,8
106310176,2024,9514,1,5
106310176,2024,2648,1,5
106310176,2024,15199,1,5
106310176,2024,9306,1,4
106310176,2024,6730,1,4
106310176,2024,7368,1,4
106310176,2024,5292,1,4
106310176,2024,227,1,4
106310176,2024,833,1,4
106310176,2024,3296,1,4
106310176,2024,2428,1,4
106310176,2024,1498,1,4
106310176,2024,1772,1,4
106310176,2024,3475,1,4
106310176,2024,508,1,4
106310176,2024,775,1,4
106310176,2024,3968,1,4
106310176,2024,2375,1,0
106310176,2024,2937,1,4
106310185,2022,2,2,8
106310185,2022,1863,1,4
106310185,2022,4956,1,4
106310185,2022,1623,1,4
106310185,2022,10081,1,4
106310185,2022,1028,1,4
106310185,2022,3301,1,4
106310185,2022,144,1,4
106310185,2022,4776,1,5
106310185,2022,2760,1,5
106310185,2022,921,1,4
106310185,2022,5372,1,4
106310185,2022,3686,1,4
106310185,2023,2,4,8
106310185,2023,2590,1,4
106310185,2023,3514,1,4
106310185,2023,5517,1,4
106310185,2023,6491,1,4
106310185,2023,1022,1,2
106310185,2023,9232,1,4
106310185,2023,11600,1,2
106310185,2023,886,1,4
106310185,2023,887,1,4
106310185,2023,3425,1,4
106310185,2023,35,1,0
106310185,2023,580,1,4
106310185,2023,7184,1,5
106310185,2023,10169,1,1
106310185,2023,5394,2,4
106310185,2023,5274,1,4
106310185,2024,4115,1,2
106310185,2024,1028,1,4
106310185,2024,1029,1,2
106310185,2024,2956,1,4
106310185,2024,9504,1,4
106310185,2024,975,1,4
106310185,2024,3704,1,4
106310185,2024,7608,1,4
106310185,2024,7448,1,4
106310185,2024,9099,1,5
106310185,2024,2,6,8
106310185,2024,11472,1,3
106310185,2024,7269,1,5
106310185,2024,2832,1,5
106310185,2024,3259,1,5
106310185,2024,11247,1,4
106310185,2024,4663,1,4
106310185,2024,2048,1,4
106310185,2024,2584,1,2
106310185,2024,1633,1,4
106310185,2024,7554,1,4
106310185,2024,5998,1,4
106310185,2024,3631,1,4
106310185,2024,4466,1,4
106310185,2024,4755,1,2
106310185,2024,3198,1,4
106310219,2022,5333,1,4
106310219,2022,2,11,8
106310219,2022,508,1,4
106310219,2022,5142,1,4
106310219,2022,8022,1,4
106310219,2022,537,1,4
106310219,2022,4113,1,4
106310219,2022,10200,1,4
106310219,2022,871,1,2
106310219,2022,1788,1,4
106310219,2022,2801,1,4
106310219,2022,1293,1,0
106310219,2022,6451,1,4
106310219,2022,2206,1,4
106310219,2022,8313,1,4
106310219,2022,308,1,4
106310219,2022,1028,1,4
106310219,2022,3301,1,4
106310219,2022,892,1,2
106310219,2022,6798,1,4
106310219,2022,2129,1,4
106310219,2022,1156,1,4
106310219,2022,2956,1,4
106310219,2022,2340,1,0
106310219,2022,7720,2,4
106310219,2022,5342,1,4
106310219,2022,1035,1,4
106310219,2022,242,1,4
106310219,2022,2615,1,4
106310219,2022,5,1,5
106310219,2022,6448,1,5
106310219,2022,1615,1,5
106310219,2022,1000,2,4
106310219,2022,5358,1,4
106310219,2022,5372,1,4
106310219,2022,57,1,4
106310219,2022,4415,1,0
106310219,2022,399,1,4
106310219,2022,656,1,4
106310219,2022,2527,1,4
106310219,2023,2,9,8
106310219,2023,1353,1,4
106310219,2023,2431,1,4
106310219,2023,660,1,4
106310219,2023,5142,1,4
106310219,2023,9892,1,4
106310219,2023,2874,1,4
106310219,2023,6176,1,4
106310219,2023,1623,1,4
106310219,2023,6417,1,4
106310219,2023,2720,1,4
106310219,2023,1422,1,4
106310219,2023,11015,1,4
106310219,2023,12327,1,4
106310219,2023,1423,1,4
106310219,2023,4870,1,0
106310219,2023,3717,1,4
106310219,2023,4115,1,2
106310219,2023,4063,1,4
106310219,2023,1320,1,0
106310219,2023,1817,1,4
106310219,2023,144,1,4
106310219,2023,2956,1,4
106310219,2023,2340,1,0
106310219,2023,7720,2,4
106310219,2023,2758,1,4
106310219,2023,6218,2,4
106310219,2023,1821,1,4
106310219,2023,2822,1,4
106310219,2023,1258,1,0
106310219,2023,519,1,4
106310219,2023,7230,1,3
106310219,2023,2513,1,5
106310219,2023,9183,1,5
106310219,2023,9370,1,1
106310219,2023,12532,1,4
106310219,2023,12080,1,4
106310219,2023,6440,1,4
106310219,2023,2408,1,4
106310219,2023,737,1,4
106310219,2023,1498,1,4
106310219,2023,3004,1,4
106310219,2024,3383,1,2
106310219,2024,1293,1,0
106310219,2024,4869,1,4
106310219,2024,1028,1,4
106310219,2024,1320,1,0
106310219,2024,3425,1,4
106310219,2024,2956,1,4
106310219,2024,2340,2,0
106310219,2024,517,1,4
106310219,2024,1034,1,4
106310219,2024,1904,1,4
106310219,2024,7153,1,4
106310219,2024,1409,1,4
106310219,2024,519,1,4
106310219,2024,1302,1,0
106310219,2024,4566,1,4
106310219,2024,8359,1,4
106310219,2024,2615,1,4
106310219,2024,6325,1,5
106310219,2024,6614,1,5
106310219,2024,13074,1,5
106310219,2024,2,4,8
106310219,2024,5234,1,5
106310219,2024,6581,1,5
106310219,2024,2647,1,3
106310219,2024,3491,1,4
106310219,2024,4441,1,0
106310219,2024,3305,1,4
106310219,2024,12594,1,4
106310219,2024,2764,1,4
106310219,2024,832,1,4
106310219,2024,14280,1,4
106310219,2024,13938,1,4
106310219,2024,2386,1,4
106310219,2024,2271,1,4
106310219,2024,3496,1,4
106310219,2024,7302,1,4
106310219,2024,152,1,4
106310219,2024,1784,1,4
106310219,2024,1516,1,4
106310219,2024,9892,1,4
106310219,2024,6479,1,4
106310219,2024,13309,1,4
106310228,2022,3628,4,4
106310228,2022,2144,1,4
106310228,2022,1806,1,0
106310228,2022,8002,2,4
106310228,2022,5333,2,4
106310228,2022,2,13,8
106310228,2022,2590,1,4
106310228,2022,806,1,4
106310228,2022,2431,1,4
106310228,2022,268,1,4
106310228,2022,3475,1,4
106310228,2022,7724,1,4
106310228,2022,945,2,4
106310228,2022,2748,1,4
106310228,2022,626,1,4
106310228,2022,9892,1,4
106310228,2022,2201,1,4
106310228,2022,826,1,2
106310228,2022,1884,1,4
106310228,2022,1734,1,4
106310228,2022,2801,2,4
106310228,2022,953,1,4
106310228,2022,2770,2,4
106310228,2022,1834,1,0
106310228,2022,122,1,4
106310228,2022,878,1,4
106310228,2022,6510,1,4
106310228,2022,3778,1,4
106310228,2022,1252,1,4
106310228,2022,2465,1,4
106310228,2022,1992,1,4
106310228,2022,1028,3,4
106310228,2022,3301,2,4
106310228,2022,3388,1,4
106310228,2022,886,1,4
106310228,2022,3407,1,4
106310228,2022,3425,2,4
106310228,2022,3911,1,4
106310228,2022,4363,1,4
106310228,2022,2956,1,4
106310228,2022,12381,1,4
106310228,2022,3446,1,4
106310228,2022,973,1,2
106310228,2022,3517,1,4
106310228,2022,675,1,4
106310228,2022,7720,2,4
106310228,2022,4098,1,4
106310228,2022,1821,1,4
106310228,2022,2822,1,4
106310228,2022,3339,1,4
106310228,2022,7608,1,4
106310228,2022,3739,1,4
106310228,2022,1614,1,4
106310228,2022,980,1,2
106310228,2022,4408,1,4
106310228,2022,6224,1,5
106310228,2022,1615,1,5
106310228,2022,3169,1,5
106310228,2022,4306,1,5
106310228,2022,12532,1,4
106310228,2022,1922,1,2
106310228,2022,2649,1,2
106310228,2022,5372,1,4
106310228,2022,1598,1,4
106310228,2022,922,1,2
106310228,2022,682,1,4
106310228,2022,850,1,4
106310228,2022,2764,1,4
106310228,2022,589,1,2
106310228,2022,3178,1,4
106310228,2022,3397,1,2
106310228,2022,928,1,2
106310228,2022,165,1,4
106310228,2022,737,2,4
106310228,2022,3181,1,4
106310228,2022,1149,1,4
106310228,2022,2273,1,4
106310228,2023,3628,4,4
106310228,2023,375,1,4
106310228,2023,5333,1,4
106310228,2023,1464,1,4
106310228,2023,2,26,8
106310228,2023,806,1,4
106310228,2023,8015,1,4
106310228,2023,1217,1,4
106310228,2023,3818,1,4
106310228,2023,1810,1,4
106310228,2023,2903,1,2
106310228,2023,950,1,4
106310228,2023,826,2,2
106310228,2023,11784,1,4
106310228,2023,628,1,4
106310228,2023,6753,1,4
106310228,2023,1152,1,4
106310228,2023,3820,1,4
106310228,2023,8315,1,4
106310228,2023,3717,2,4
106310228,2023,4115,1,2
106310228,2023,696,1,4
106310228,2023,1028,1,4
106310228,2023,4063,1,4
106310228,2023,180,1,4
106310228,2023,9537,1,4
106310228,2023,12353,1,4
106310228,2023,886,1,4
106310228,2023,3425,1,4
106310228,2023,438,1,4
106310228,2023,1034,1,4
106310228,2023,5342,2,4
106310228,2023,2989,1,4
106310228,2023,1821,2,4
106310228,2023,2467,2,4
106310228,2023,2822,2,4
106310228,2023,1538,1,4
106310228,2023,2615,1,4
106310228,2023,106,1,5
106310228,2023,3672,1,5
106310228,2023,6149,1,5
106310228,2023,5,1,5
106310228,2023,10570,1,5
106310228,2023,4472,1,5
106310228,2023,6581,1,5
106310228,2023,11472,1,3
106310228,2023,4924,1,5
106310228,2023,710,1,5
106310228,2023,3259,1,5
106310228,2023,2649,1,2
106310228,2023,5394,1,4
106310228,2023,3491,2,4
106310228,2023,3305,1,4
106310228,2023,3605,1,4
106310228,2023,1898,1,4
106310228,2023,1001,2,2
106310228,2023,5372,1,4
106310228,2023,1598,1,4
106310228,2023,922,1,2
106310228,2023,97,1,4
106310228,2023,13143,1,4
106310228,2023,6840,1,4
106310228,2023,3473,1,2
106310228,2023,3181,1,4
106310228,2023,3474,2,4
106310228,2023,713,1,4
106310228,2023,3219,1,4
106310228,2023,1683,1,4
106310228,2024,5875,1,4
106310228,2024,6649,1,4
106310228,2024,6176,1,4
106310228,2024,13309,1,4
106310228,2024,11784,2,4
106310228,2024,2770,3,4
106310228,2024,8292,1,4
106310228,2024,8505,1,4
106310228,2024,6753,1,4
106310228,2024,122,1,4
106310228,2024,3628,2,4
106310228,2024,6636,1,4
106310228,2024,785,1,4
106310228,2024,2418,1,4
106310228,2024,11427,1,4
106310228,2024,4114,1,2
106310228,2024,2604,1,4
106310228,2024,1423,1,4
106310228,2024,3423,1,4
106310228,2024,1028,2,4
106310228,2024,3301,2,4
106310228,2024,5333,1,4
106310228,2024,2375,1,0
106310228,2024,3388,1,4
106310228,2024,886,1,4
106310228,2024,2336,1,4
106310228,2024,3425,2,4
106310228,2024,1032,2,4
106310228,2024,7109,1,4
106310228,2024,675,1,4
106310228,2024,2560,1,4
106310228,2024,2822,1,4
106310228,2024,2,11,8
106310228,2024,1158,1,4
106310228,2024,580,1,4
106310228,2024,2615,1,4
106310228,2024,2519,1,5
106310228,2024,6614,1,5
106310228,2024,9285,1,3
106310228,2024,2310,1,5
106310228,2024,5670,1,5
106310228,2024,2799,1,5
106310228,2024,5127,1,5
106310228,2024,1052,1,2
106310228,2024,11780,1,3
106310228,2024,5394,1,4
106310228,2024,1800,1,4
106310228,2024,3491,1,4
106310228,2024,3526,1,4
106310228,2024,11096,1,4
106310228,2024,7691,1,2
106310228,2024,3397,3,2
106310228,2024,1372,1,4
106310228,2024,3474,2,4
106310228,2024,6118,1,4
106310228,2024,2362,1,4
106310228,2024,2162,1,4
106310228,2024,3453,1,2
106310228,2024,2584,2,2
106310228,2024,4123,1,4
106310228,2024,945,1,4
106310228,2024,5359,1,4
106310255,2022,174,1,4
106310255,2022,3628,2,4
106310255,2022,2,3,8
106310255,2022,940,1,4
106310255,2022,941,1,2
106310255,2022,4398,1,4
106310255,2022,3612,1,4
106310255,2022,1400,1,4
106310255,2022,2431,1,4
106310255,2022,3402,1,4
106310255,2022,4123,1,4
106310255,2022,945,1,4
106310255,2022,2752,1,4
106310255,2022,946,1,2
106310255,2022,4113,1,4
106310255,2022,695,1,4
106310255,2022,3631,1,4
106310255,2022,871,1,2
106310255,2022,1022,1,2
106310255,2022,3223,1,2
106310255,2022,5054,1,4
106310255,2022,3531,1,4
106310255,2022,1028,1,4
106310255,2022,3425,1,4
106310255,2022,4363,2,4
106310255,2022,1032,1,4
106310255,2022,1916,1,4
106310255,2022,3446,1,4
106310255,2022,1034,1,4
106310255,2022,7720,1,4
106310255,2022,2612,1,4
106310255,2022,978,1,4
106310255,2022,519,1,4
106310255,2022,7802,1,5
106310255,2022,11472,1,3
106310255,2022,3685,1,5
106310255,2022,836,1,3
106310255,2022,6657,1,5
106310255,2022,4692,1,5
106310255,2022,3491,2,4
106310255,2022,850,1,4
106310255,2022,2651,1,2
106310255,2022,1657,1,4
106310255,2022,8810,1,4
106310255,2022,1923,1,4
106310255,2022,3474,1,4
106310255,2022,2584,1,2
106310255,2023,2,3,8
106310255,2023,1633,1,4
106310255,2023,2431,2,4
106310255,2023,1059,1,4
106310255,2023,4123,1,4
106310255,2023,4158,1,4
106310255,2023,945,1,4
106310255,2023,2201,1,4
106310255,2023,4113,2,4
106310255,2023,1124,1,2
106310255,2023,2770,1,4
106310255,2023,878,1,4
106310255,2023,3615,1,4
106310255,2023,880,1,4
106310255,2023,2604,1,4
106310255,2023,3406,1,2
106310255,2023,3423,1,4
106310255,2023,2937,1,4
106310255,2023,886,4,4
106310255,2023,2828,1,4
106310255,2023,892,1,2
106310255,2023,3408,1,4
106310255,2023,4363,1,4
106310255,2023,545,1,4
106310255,2023,2956,1,4
106310255,2023,2612,1,4
106310255,2023,2777,1,5
106310255,2023,1822,1,5
106310255,2023,6591,1,5
106310255,2023,7699,1,5
106310255,2023,5394,1,4
106310255,2023,3491,1,4
106310255,2023,1000,1,4
106310255,2023,1001,1,2
106310255,2023,5372,2,4
106310255,2023,6632,1,2
106310255,2023,2848,1,4
106310255,2023,1145,1,2
106310255,2023,3474,1,4
106310255,2023,2741,1,4
106310255,2023,6908,1,4
106310255,2023,716,1,4
106310255,2023,1066,1,4
106310255,2023,1683,1,4
106310255,2024,3717,1,4
106310255,2024,886,1,4
106310255,2024,675,1,4
106310255,2024,5342,1,4
106310255,2024,7233,2,5
106310255,2024,12214,1,4
106310255,2024,2,4,8
106310255,2024,11832,1,4
106310255,2024,9892,1,4
106310255,2024,2874,1,4
106310255,2024,6753,1,4
106310255,2024,1835,1,4
106310255,2024,5363,1,4
106310255,2024,3406,1,2
106310264,2022,4926,1,4
106310264,2022,5333,1,4
106310264,2022,2,6,8
106310264,2022,4814,1,4
106310264,2022,1176,1,4
106310264,2022,5409,1,4
106310264,2022,8478,1,4
106310264,2022,3316,1,4
106310264,2022,8485,1,4
106310264,2022,7031,1,4
106310264,2022,5349,4,4
106310264,2022,2262,1,4
106310264,2022,669,1,4
106310264,2022,1028,1,4
106310264,2022,3045,1,4
106310264,2022,8324,1,4
106310264,2022,4688,1,4
106310264,2022,615,1,4
106310264,2022,1537,1,4
106310264,2022,12995,1,4
106310264,2022,2030,1,4
106310264,2022,7802,1,5
106310264,2022,13392,1,1
106310264,2022,6399,1,5
106310264,2022,2779,1,5
106310264,2022,9492,1,1
106310264,2022,7304,1,4
106310264,2022,8801,1,4
106310264,2022,5977,1,4
106310264,2022,7659,1,4
106310264,2022,3354,1,4
106310264,2022,7603,1,4
106310264,2022,7710,1,4
106310264,2023,2,10,8
106310264,2023,4973,1,4
106310264,2023,1619,1,4
106310264,2023,2434,1,4
106310264,2023,4928,1,4
106310264,2023,8505,3,4
106310264,2023,2261,1,4
106310264,2023,1361,1,4
106310264,2023,3301,2,4
106310264,2023,6132,1,4
106310264,2023,8727,1,4
106310264,2023,144,1,4
106310264,2023,2150,1,4
106310264,2023,3207,1,4
106310264,2023,5754,1,4
106310264,2023,7608,1,4
106310264,2023,7937,1,4
106310264,2023,8584,1,5
106310264,2023,3991,1,5
106310264,2023,8388,1,5
106310264,2023,1454,1,4
106310264,2023,6841,1,4
106310264,2023,2254,1,4
106310264,2023,12722,1,4
106310264,2023,1546,1,4
106310264,2023,2362,1,4
106310264,2023,1549,1,4
106310264,2023,3964,1,4
106310264,2023,8443,1,4
106310264,2023,3004,1,4
106310264,2024,12982,1,4
106310264,2024,5349,1,4
106310264,2024,7376,1,4
106310264,2024,8913,1,4
106310264,2024,7061,1,4
106310264,2024,3442,1,4
106310264,2024,1191,1,4
106310264,2024,1817,1,4
106310264,2024,1,1,4
106310264,2024,14433,1,0
106310264,2024,2,4,8
106310264,2024,7608,1,4
106310264,2024,580,1,4
106310264,2024,3928,1,5
106310264,2024,4196,1,5
106310264,2024,912,1,5
106310264,2024,6294,1,5
106310264,2024,1851,1,4
106310264,2024,607,1,4
106310264,2024,3670,1,4
106310264,2024,11011,1,4
106310264,2024,2950,2,4
106310264,2024,2362,1,4
106310264,2024,135,1,4
106310264,2024,8234,1,4
106310264,2024,1683,1,4
106310264,2024,6077,1,4
106310264,2024,6943,1,4
106310264,2024,6491,1,4
106310264,2024,1559,1,4
106310264,2024,1443,1,4
106310264,2024,1171,1,4
106310264,2024,8504,1,4
106390033,2024,2832,1,5
106390033,2024,5394,1,4
106390033,2024,856,1,4
106390033,2024,5279,1,4
106390033,2024,1992,1,4
106390033,2024,7844,1,4
106390033,2024,3425,1,4
106390033,2024,2956,2,4
106390033,2024,6581,1,5
106390033,2024,7233,1,5
106390038,2022,2979,1,4
106390038,2022,2,11,8
106390038,2022,70,1,4
106390038,2022,3154,1,4
106390038,2022,3712,1,0
106390038,2022,5300,1,4
106390038,2022,1275,1,4
106390038,2022,1518,1,4
106390038,2022,1733,1,4
106390038,2022,5399,1,2
106390038,2022,4930,1,4
106390038,2022,3005,1,4
106390038,2022,4797,1,4
106390038,2022,1224,1,4
106390038,2022,5610,1,4
106390038,2022,367,1,4
106390038,2022,1127,1,4
106390038,2022,4116,1,4
106390038,2022,12767,1,4
106390038,2022,278,1,4
106390038,2022,9795,1,4
106390038,2022,3301,1,4
106390038,2022,2336,1,4
106390038,2022,4801,1,2
106390038,2022,4179,1,4
106390038,2022,4278,1,4
106390038,2022,3446,1,4
106390038,2022,1821,1,4
106390038,2022,975,1,4
106390038,2022,5746,1,5
106390038,2022,7940,1,5
106390038,2022,7234,1,5
106390038,2022,3672,1,5
106390038,2022,9548,1,5
106390038,2022,4773,1,5
106390038,2022,11652,1,3
106390038,2022,7607,1,3
106390038,2022,8776,1,5
106390038,2022,11667,1,5
106390038,2022,3283,1,5
106390038,2022,3261,1,4
106390038,2022,107,1,4
106390038,2022,1986,1,4
106390038,2022,3627,1,4
106390038,2022,3846,1,4
106390038,2022,2252,1,4
106390038,2022,1801,1,4
106390038,2022,248,1,4
106390038,2022,7793,1,4
106390038,2022,4266,1,4
106390038,2022,2972,1,4
106390038,2022,1988,1,4
106390038,2023,3628,1,4
106390038,2023,2,21,8
106390038,2023,1122,1,4
106390038,2023,1271,1,4
106390038,2023,2597,1,4
106390038,2023,4524,1,2
106390038,2023,826,1,2
106390038,2023,951,1,4
106390038,2023,3723,1,4
106390038,2023,2419,1,4
106390038,2023,963,1,4
106390038,2023,1697,1,2
106390038,2023,1129,1,4
106390038,2023,6041,1,4
106390038,2023,4531,1,4
106390038,2023,7844,1,4
106390038,2023,886,1,4
106390038,2023,4277,1,4
106390038,2023,3912,1,4
106390038,2023,1034,1,4
106390038,2023,35,1,0
106390038,2023,3540,1,4
106390038,2023,3389,1,4
106390038,2023,4588,1,4
106390038,2023,4078,1,2
106390038,2023,6009,1,4
106390038,2023,5108,1,4
106390038,2023,9507,1,5
106390038,2023,89,1,5
106390038,2023,909,1,3
106390038,2023,5834,1,5
106390038,2023,1099,1,5
106390038,2023,10489,1,3
106390038,2023,2644,1,5
106390038,2023,10828,1,5
106390038,2023,10567,1,5
106390038,2023,1492,1,4
106390038,2023,5394,1,4
106390038,2023,4833,1,4
106390038,2023,2584,1,2
106390038,2023,1683,1,4
106390038,2023,2391,1,4
106390038,2024,1833,1,4
106390038,2024,3593,1,4
106390038,2024,1221,1,4
106390038,2024,4665,1,4
106390038,2024,4868,1,4
106390038,2024,2244,1,4
106390038,2024,9923,1,4
106390038,2024,3224,1,4
106390038,2024,5401,1,4
106390038,2024,9659,1,4
106390038,2024,5333,1,4
106390038,2024,1740,1,4
106390038,2024,5367,1,4
106390038,2024,4276,1,4
106390038,2024,1032,1,4
106390038,2024,6892,1,4
106390038,2024,4587,1,4
106390038,2024,8344,1,4
106390038,2024,7720,2,4
106390038,2024,7761,1,4
106390038,2024,2822,1,4
106390038,2024,2,8,8
106390038,2024,7608,1,4
106390038,2024,1743,1,4
106390038,2024,580,1,4
106390038,2024,4408,1,4
106390038,2024,2992,1,4
106390038,2024,550,1,5
106390038,2024,12373,1,3
106390038,2024,2448,1,5
106390038,2024,7269,1,5
106390038,2024,11322,1,3
106390038,2024,11832,1,4
106390038,2024,10978,1,5
106390038,2024,5213,1,5
106390038,2024,2681,1,3
106390038,2024,586,1,5
106390038,2024,4758,1,1
106390038,2024,7233,1,5
106390038,2024,1681,1,5
106390038,2024,13833,1,3
106390038,2024,5394,1,4
106390038,2024,1851,1,4
106390038,2024,806,1,4
106390038,2024,1923,1,4
106390038,2024,3688,1,4
106390038,2024,4233,1,4
106390038,2024,227,1,4
106390038,2024,4340,1,4
106390038,2024,11247,1,4
106390038,2024,4370,1,4
106390038,2024,3496,1,4
106390038,2024,938,1,4
106390038,2024,5759,1,4
106390038,2024,2950,1,4
106390038,2024,3737,1,2
106390038,2024,4123,1,4
106390038,2024,5572,1,4
106390038,2024,6491,1,4
106390039,2022,2978,1,4
106390039,2022,2,6,8
106390039,2022,5656,1,4
106390039,2022,1636,1,4
106390039,2022,12765,1,4
106390039,2022,5876,1,4
106390039,2022,506,1,4
106390039,2022,3475,1,4
106390039,2022,8260,1,4
106390039,2022,7100,1,4
106390039,2022,2750,1,4
106390039,2022,2875,1,4
106390039,2022,114,1,4
106390039,2022,2057,1,4
106390039,2022,7071,1,4
106390039,2022,7600,1,4
106390039,2022,11393,1,2
106390039,2022,7086,1,4
106390039,2022,5349,1,4
106390039,2022,5363,2,4
106390039,2022,7376,1,4
106390039,2022,3286,1,4
106390039,2022,3717,2,4
106390039,2022,6031,1,4
106390039,2022,3301,1,4
106390039,2022,13573,1,4
106390039,2022,2149,1,4
106390039,2022,3425,1,4
106390039,2022,6798,1,4
106390039,2022,2340,1,0
106390039,2022,8973,1,4
106390039,2022,1158,1,4
106390039,2022,1363,2,4
106390039,2022,12717,1,4
106390039,2022,1110,1,4
106390039,2022,1652,1,5
106390039,2022,2096,1,5
106390039,2022,3604,1,4
106390039,2022,12260,1,4
106390039,2022,5370,1,4
106390039,2022,4474,1,4
106390039,2022,7612,1,4
106390039,2022,6840,1,4
106390039,2022,1370,1,4
106390039,2022,2784,1,4
106390039,2022,2738,1,4
106390039,2022,5982,1,4
106390039,2022,9316,1,4
106390039,2022,2362,1,4
106390039,2022,2584,1,2
106390039,2022,5479,1,4
106390039,2022,5672,1,4
106390039,2022,1683,1,4
106390039,2022,13651,1,4
106390039,2023,5333,1,4
106390039,2023,2198,1,4
106390039,2023,2,4,8
106390039,2023,2394,1,4
106390039,2023,2395,1,4
106390039,2023,2333,1,0
106390039,2023,5302,1,4
106390039,2023,3475,2,4
106390039,2023,7724,2,4
106390039,2023,2888,1,4
106390039,2023,1829,1,4
106390039,2023,6334,1,4
106390039,2023,1684,1,4
106390039,2023,3939,1,4
106390039,2023,3160,1,4
106390039,2023,1865,1,4
106390039,2023,1623,1,4
106390039,2023,4606,1,4
106390039,2023,8048,1,4
106390039,2023,8292,1,4
106390039,2023,2323,1,4
106390039,2023,1942,1,4
106390039,2023,5349,2,4
106390039,2023,156,1,4
106390039,2023,5736,1,4
106390039,2023,3717,2,4
106390039,2023,669,1,4
106390039,2023,1129,1,4
106390039,2023,9537,1,4
106390039,2023,3301,2,4
106390039,2023,3968,1,4
106390039,2023,2937,1,4
106390039,2023,887,1,4
106390039,2023,8546,1,4
106390039,2023,8723,1,4
106390039,2023,160,1,4
106390039,2023,13454,1,4
106390039,2023,799,1,4
106390039,2023,8741,1,1
106390039,2023,4085,1,5
106390039,2023,5,1,5
106390039,2023,15200,1,5
106390039,2023,12532,1,4
106390039,2023,7147,1,4
106390039,2023,7406,1,4
106390039,2023,6840,3,4
106390039,2023,2255,1,4
106390039,2023,2362,2,4
106390039,2023,135,2,4
106390039,2023,3219,1,4
106390039,2023,8443,1,4
106390039,2024,1623,1,4
106390039,2024,5464,1,4
106390039,2024,1028,1,4
106390039,2024,7844,1,4
106390039,2024,2828,1,4
106390039,2024,2339,1,4
106390039,2024,1915,1,4
106390039,2024,12381,1,4
106390039,2024,7720,1,4
106390039,2024,2212,1,4
106390039,2024,5333,1,4
106390039,2024,6212,1,5
106390039,2024,3928,2,5
106390039,2024,9112,1,5
106390039,2024,11145,1,1
106390039,2024,12532,1,4
106390039,2024,5978,1,4
106390039,2024,7254,1,4
106390039,2024,2362,1,4
106390039,2024,12367,1,4
106390039,2024,2,4,8
106390039,2024,118,1,0
106390039,2024,13605,1,4
106390039,2024,5142,1,4
106390039,2024,10254,1,4
106390039,2024,15201,1,4
106390039,2024,9781,2,4
106390040,2022,2,5,8
106390040,2022,118,1,0
106390040,2022,3256,1,0
106390040,2022,4112,1,4
106390040,2022,4284,1,4
106390040,2022,3598,1,4
106390040,2022,4602,1,4
106390040,2022,3614,1,4
106390040,2022,19,1,4
106390040,2022,2663,1,4
106390040,2022,1785,1,4
106390040,2022,6429,1,4
106390040,2022,6444,1,4
106390040,2022,1884,1,4
106390040,2022,3555,1,4
106390040,2022,2801,1,4
106390040,2022,1834,1,0
106390040,2022,3250,1,4
106390040,2022,5349,1,4
106390040,2022,4622,1,4
106390040,2022,2547,2,4
106390040,2022,2605,1,4
106390040,2022,4115,1,2
106390040,2022,1028,1,4
106390040,2022,886,1,4
106390040,2022,3443,1,2
106390040,2022,2708,1,4
106390040,2022,2208,2,4
106390040,2022,3425,1,4
106390040,2022,3408,1,4
106390040,2022,6798,1,4
106390040,2022,840,1,4
106390040,2022,2129,1,4
106390040,2022,3207,1,4
106390040,2022,6218,1,4
106390040,2022,1821,1,4
106390040,2022,7251,1,4
106390040,2022,8131,1,4
106390040,2022,11517,1,5
106390040,2022,10877,1,5
106390040,2022,6967,1,5
106390040,2022,9675,1,5
106390040,2022,6746,1,5
106390040,2022,5391,1,3
106390040,2022,586,1,5
106390040,2022,5043,1,5
106390040,2022,11667,1,5
106390040,2022,7805,1,4
106390040,2022,1628,1,4
106390040,2022,918,1,4
106390040,2022,3470,1,4
106390040,2022,9310,1,4
106390040,2022,6840,1,4
106390040,2022,2408,1,4
106390040,2022,5129,1,4
106390040,2022,2784,2,4
106390040,2022,3963,1,4
106390040,2022,5690,1,4
106390040,2022,1987,1,4
106390040,2022,227,1,4
106390040,2022,6723,1,4
106390040,2022,1902,1,2
106390040,2022,9847,1,4
106390040,2022,3737,1,2
106390040,2022,1683,1,4
106390040,2023,1331,1,4
106390040,2023,5333,1,4
106390040,2023,2,12,8
106390040,2023,1400,1,4
106390040,2023,3712,1,0
106390040,2023,4123,1,4
106390040,2023,944,1,4
106390040,2023,8015,1,4
106390040,2023,2951,1,4
106390040,2023,2817,1,4
106390040,2023,6176,1,4
106390040,2023,1560,1,4
106390040,2023,6753,1,4
106390040,2023,1942,1,4
106390040,2023,1757,1,4
106390040,2023,6417,1,4
106390040,2023,3273,1,4
106390040,2023,1970,1,4
106390040,2023,3274,1,4
106390040,2023,3717,1,4
106390040,2023,669,1,4
106390040,2023,1028,1,4
106390040,2023,1129,1,4
106390040,2023,1814,1,4
106390040,2023,3301,2,4
106390040,2023,4317,1,4
106390040,2023,1740,1,4
106390040,2023,2208,1,4
106390040,2023,11041,1,4
106390040,2023,1916,1,4
106390040,2023,3446,1,4
106390040,2023,675,1,4
106390040,2023,4321,1,4
106390040,2023,2822,1,4
106390040,2023,1301,1,0
106390040,2023,12822,1,1
106390040,2023,5870,1,3
106390040,2023,3960,1,5
106390040,2023,6136,1,5
106390040,2023,7547,1,3
106390040,2023,8381,1,5
106390040,2023,10402,1,3
106390040,2023,6657,1,5
106390040,2023,3533,1,5
106390040,2023,11025,1,3
106390040,2023,5827,1,5
106390040,2023,9513,1,5
106390040,2023,912,1,5
106390040,2023,9492,1,1
106390040,2023,3491,1,4
106390040,2023,14011,1,4
106390040,2023,473,1,4
106390040,2023,3470,1,4
106390040,2023,6634,1,4
106390040,2023,3397,1,2
106390040,2023,452,1,4
106390040,2023,5735,1,4
106390040,2023,387,1,4
106390040,2023,11706,1,2
106390040,2023,4022,1,4
106390040,2023,2584,1,2
106390040,2023,571,1,4
106390040,2024,3893,1,4
106390040,2024,1295,1,4
106390040,2024,964,1,2
106390040,2024,3301,1,4
106390040,2024,2708,1,4
106390040,2024,5324,1,4
106390040,2024,1485,1,4
106390040,2024,1678,1,5
106390040,2024,12888,1,5
106390040,2024,7955,1,5
106390040,2024,3628,1,4
106390040,2024,2310,1,5
106390040,2024,11507,1,1
106390040,2024,3685,1,5
106390040,2024,4135,1,3
106390040,2024,1632,1,4
106390040,2024,11466,1,2
106390040,2024,2194,1,4
106390040,2024,452,1,4
106390040,2024,3296,1,4
106390040,2024,12366,1,4
106390040,2024,483,1,8
106390040,2024,2,2,8
106390040,2024,13148,1,4
106390040,2024,4074,1,4
106390040,2024,806,1,4
106390040,2024,1935,1,4
106390040,2024,12581,1,4
106390045,2022,3628,2,4
106390045,2022,3030,1,4
106390045,2022,2,6,8
106390045,2022,6433,1,4
106390045,2022,7141,1,4
106390045,2022,12,1,4
106390045,2022,2177,1,4
106390045,2022,945,1,4
106390045,2022,2436,1,4
106390045,2022,2817,1,4
106390045,2022,333,1,4
106390045,2022,78,1,4
106390045,2022,8288,1,4
106390045,2022,1623,3,4
106390045,2022,2051,1,4
106390045,2022,8505,1,4
106390045,2022,1926,1,4
106390045,2022,4870,1,0
106390045,2022,11306,1,0
106390045,2022,8091,1,4
106390045,2022,3822,1,4
106390045,2022,3301,1,4
106390045,2022,7845,1,4
106390045,2022,7846,2,4
106390045,2022,4434,1,4
106390045,2022,435,1,4
106390045,2022,3408,1,4
106390045,2022,254,1,4
106390045,2022,34,1,4
106390045,2022,3446,1,4
106390045,2022,675,2,4
106390045,2022,36,1,4
106390045,2022,6303,1,3
106390045,2022,2633,1,5
106390045,2022,3524,1,5
106390045,2022,46,1,1
106390045,2022,6450,1,4
106390045,2022,3396,1,4
106390045,2022,703,1,2
106390045,2022,730,1,4
106390045,2022,6840,1,4
106390045,2022,8201,1,4
106390045,2022,8204,1,4
106390045,2022,3180,1,4
106390045,2022,3417,1,4
106390045,2022,2387,1,4
106390045,2022,3181,1,4
106390045,2022,2362,1,4
106390045,2022,2456,1,4
106390045,2022,13608,1,4
106390045,2022,8443,1,4
106390045,2022,5854,1,4
106390045,2023,174,1,4
106390045,2023,8002,1,4
106390045,2023,2,9,8
106390045,2023,5895,1,4
106390045,2023,2431,1,4
106390045,2023,1354,1,0
106390045,2023,4905,1,4
106390045,2023,11318,1,4
106390045,2023,5142,1,4
106390045,2023,627,1,4
106390045,2023,6176,1,4
106390045,2023,772,1,4
106390045,2023,4173,1,4
106390045,2023,695,1,4
106390045,2023,1170,1,4
106390045,2023,872,1,4
106390045,2023,173,1,4
106390045,2023,7166,1,4
106390045,2023,7071,1,4
106390045,2023,6415,1,4
106390045,2023,763,1,4
106390045,2023,334,1,4
106390045,2023,7610,1,4
106390045,2023,141,1,4
106390045,2023,1566,1,4
106390045,2023,308,1,4
106390045,2023,4063,2,4
106390045,2023,180,1,4
106390045,2023,3301,1,4
106390045,2023,2336,1,4
106390045,2023,7720,1,4
106390045,2023,1035,1,4
106390045,2023,1390,1,4
106390045,2023,11145,1,1
106390045,2023,49,1,4
106390045,2023,6759,1,0
106390045,2023,7611,1,4
106390045,2023,5358,1,4
106390045,2023,14514,1,4
106390045,2023,3721,1,4
106390045,2023,6840,1,4
106390045,2023,1657,1,4
106390045,2023,2408,1,4
106390045,2023,12844,1,4
106390045,2023,1117,1,4
106390045,2023,3179,1,4
106390045,2023,11815,1,4
106390045,2023,14272,1,4
106390045,2023,7459,1,4
106390045,2023,3587,1,4
106390045,2023,8228,1,4
106390045,2023,6686,1,4
106390045,2023,2073,1,4
106390045,2024,4123,1,4
106390045,2024,2815,1,4
106390045,2024,661,1,4
106390045,2024,2201,1,4
106390045,2024,2874,1,4
106390045,2024,1623,1,4
106390045,2024,1834,1,0
106390045,2024,6753,1,4
106390045,2024,1028,1,4
106390045,2024,965,1,4
106390045,2024,2,2,8
106390045,2024,2375,2,0
106390045,2024,1320,1,0
106390045,2024,3388,2,4
106390045,2024,7720,1,4
106390045,2024,6218,1,4
106390045,2024,1821,1,4
106390045,2024,2468,1,4
106390045,2024,580,1,4
106390045,2024,5724,1,5
106390045,2024,1822,1,5
106390045,2024,2590,1,4
106390045,2024,7075,1,5
106390045,2024,12610,1,5
106390045,2024,3371,1,4
106390045,2024,7147,1,4
106390045,2024,1598,1,4
106390045,2024,638,1,4
106390045,2024,3918,1,4
106390045,2024,8201,1,4
106390045,2024,3416,1,4
106390045,2024,833,1,4
106390045,2024,2591,1,4
106390045,2024,451,1,4
106390045,2024,2272,1,4
106390045,2024,7886,1,4
106390045,2024,6433,1,4
106390045,2024,8665,1,4
106390045,2024,15202,1,4
106390045,2024,2395,1,4
106390045,2024,1333,1,4
106390046,2022,5333,1,4
106390046,2022,2,10,8
106390046,2022,1505,1,4
106390046,2022,2902,1,4
106390046,2022,1400,1,4
106390046,2022,806,2,4
106390046,2022,2431,1,4
106390046,2022,1123,1,4
106390046,2022,4123,1,4
106390046,2022,3475,1,4
106390046,2022,2817,1,4
106390046,2022,1357,1,0
106390046,2022,331,1,4
106390046,2022,7434,1,0
106390046,2022,6156,1,4
106390046,2022,2181,1,4
106390046,2022,2770,1,4
106390046,2022,8055,1,4
106390046,2022,3383,1,2
106390046,2022,1126,1,4
106390046,2022,4766,1,4
106390046,2022,1186,1,4
106390046,2022,880,1,4
106390046,2022,2604,2,4
106390046,2022,1028,1,4
106390046,2022,1388,1,4
106390046,2022,8951,1,4
106390046,2022,6798,1,4
106390046,2022,3206,1,4
106390046,2022,2956,2,4
106390046,2022,3446,1,4
106390046,2022,1034,1,4
106390046,2022,675,1,4
106390046,2022,1928,1,4
106390046,2022,4480,1,0
106390046,2022,1432,1,4
106390046,2022,1678,1,5
106390046,2022,2994,1,5
106390046,2022,9099,1,5
106390046,2022,7119,1,5
106390046,2022,6438,1,5
106390046,2022,10567,1,5
106390046,2022,3491,1,4
106390046,2022,6450,1,4
106390046,2022,7120,1,4
106390046,2022,4832,1,4
106390046,2022,5370,1,4
106390046,2022,5372,2,4
106390046,2022,638,1,4
106390046,2022,850,1,4
106390046,2022,3473,1,2
106390046,2022,4106,1,4
106390046,2022,565,1,4
106390046,2022,2739,1,4
106390046,2022,3670,1,4
106390046,2022,3587,1,4
106390046,2022,3002,1,0
106390046,2022,2584,1,2
106390046,2022,656,1,4
106390046,2023,3628,1,4
106390046,2023,5333,1,4
106390046,2023,1464,1,4
106390046,2023,2,18,8
106390046,2023,9789,1,0
106390046,2023,11095,1,4
106390046,2023,858,1,4
106390046,2023,5721,1,0
106390046,2023,535,1,4
106390046,2023,3476,1,4
106390046,2023,4113,1,4
106390046,2023,1105,1,4
106390046,2023,1684,1,4
106390046,2023,1184,1,4
106390046,2023,1734,1,4
106390046,2023,2526,1,4
106390046,2023,1023,1,2
106390046,2023,4242,1,4
106390046,2023,11887,1,4
106390046,2023,669,1,4
106390046,2023,883,1,4
106390046,2023,3301,1,4
106390046,2023,7844,1,4
106390046,2023,381,1,4
106390046,2023,3145,1,4
106390046,2023,2208,1,4
106390046,2023,8546,1,4
106390046,2023,11545,1,0
106390046,2023,1032,1,4
106390046,2023,2956,1,4
106390046,2023,12381,2,4
106390046,2023,3446,2,4
106390046,2023,7720,2,4
106390046,2023,6218,1,4
106390046,2023,1821,1,4
106390046,2023,2131,1,4
106390046,2023,7471,1,5
106390046,2023,7225,1,3
106390046,2023,4262,1,5
106390046,2023,2648,1,5
106390046,2023,5802,1,5
106390046,2023,5394,1,4
106390046,2023,850,1,4
106390046,2023,1115,1,4
106390046,2023,7360,1,4
106390046,2023,1804,1,4
106390046,2023,3474,1,4
106390046,2023,1498,1,4
106390046,2023,4415,1,0
106390046,2023,2584,1,2
106390046,2023,5745,1,4
106390046,2023,2297,1,4
106390046,2024,3423,1,4
106390046,2024,5101,1,4
106390046,2024,3301,3,4
106390046,2024,15203,1,4
106390046,2024,2375,3,0
106390046,2024,1032,2,4
106390046,2024,9504,1,4
106390046,2024,3446,1,4
106390046,2024,675,1,4
106390046,2024,3207,1,4
106390046,2024,2,4,8
106390046,2024,560,1,4
106390046,2024,1632,1,4
106390046,2024,589,1,2
106390046,2024,3296,1,4
106390046,2024,1683,1,4
106390046,2024,12581,1,4
106390046,2024,4905,1,4
106390046,2024,4113,1,4
106390046,2024,13215,1,4
106390046,2024,6753,1,4
106390046,2024,156,1,4
106390046,2024,13418,1,4
106390056,2022,7162,1,4
106390056,2022,2,3,8
106390056,2022,2592,1,2
106390056,2022,2537,1,2
106390056,2022,1059,1,4
106390056,2022,5200,1,2
106390056,2022,263,2,2
106390056,2022,1402,1,4
106390056,2022,140,1,2
106390056,2022,871,1,2
106390056,2022,873,1,2
106390056,2022,2543,2,2
106390056,2022,123,1,4
106390056,2022,1525,1,4
106390056,2022,3223,1,2
106390056,2022,7347,1,4
106390056,2022,9232,1,4
106390056,2022,11600,3,2
106390056,2022,2554,1,2
106390056,2022,698,1,2
106390056,2022,3425,1,4
106390056,2022,4363,8,4
106390056,2022,7720,1,4
106390056,2022,2615,1,4
106390056,2022,2694,1,5
106390056,2022,2831,2,5
106390056,2022,11652,1,3
106390056,2022,6406,1,3
106390056,2022,6654,1,3
106390056,2022,2633,1,5
106390056,2022,10491,1,3
106390056,2022,5184,1,3
106390056,2022,2648,1,5
106390056,2022,9573,1,1
106390056,2022,1000,2,4
106390056,2022,406,1,2
106390056,2022,6632,1,2
106390056,2022,3249,1,2
106390056,2022,11673,1,2
106390056,2022,1206,1,4
106390056,2022,1902,1,2
106390056,2022,2584,1,2
106390056,2022,716,1,4
106390056,2022,7121,1,4
106390056,2022,5198,1,2
106390056,2022,2659,1,2
106390056,2022,1066,1,4
106390056,2023,505,2,2
106390056,2023,2,2,8
106390056,2023,7424,1,2
106390056,2023,945,2,4
106390056,2023,1018,1,2
106390056,2023,11784,1,4
106390056,2023,4744,1,4
106390056,2023,3723,1,4
106390056,2023,1023,2,2
106390056,2023,7113,1,2
106390056,2023,838,1,4
106390056,2023,11600,5,2
106390056,2023,886,2,4
106390056,2023,887,1,4
106390056,2023,889,1,0
106390056,2023,3425,1,4
106390056,2023,2338,1,2
106390056,2023,5204,1,2
106390056,2023,4363,2,4
106390056,2023,310,1,4
106390056,2023,1034,4,4
106390056,2023,1580,1,4
106390056,2023,1035,1,4
106390056,2023,393,1,4
106390056,2023,2614,1,2
106390056,2023,2616,1,4
106390056,2023,2617,2,2
106390056,2023,11652,1,3
106390056,2023,2630,1,3
106390056,2023,1045,1,3
106390056,2023,3244,1,3
106390056,2023,9112,1,5
106390056,2023,4651,2,5
106390056,2023,2640,1,3
106390056,2023,914,2,2
106390056,2023,3491,2,4
106390056,2023,1000,2,4
106390056,2023,5358,1,4
106390056,2023,3248,1,4
106390056,2023,2651,1,2
106390056,2023,2784,1,4
106390056,2023,3249,1,2
106390056,2023,11247,1,4
106390056,2023,2584,1,2
106390056,2024,6023,1,2
106390056,2024,2543,2,2
106390056,2024,3223,2,2
106390056,2024,957,1,4
106390056,2024,5055,1,2
106390056,2024,9232,1,4
106390056,2024,3406,1,2
106390056,2024,5253,2,0
106390056,2024,885,1,2
106390056,2024,11600,3,2
106390056,2024,2,6,8
106390056,2024,886,1,4
106390056,2024,887,2,4
106390056,2024,3425,1,4
106390056,2024,2338,1,2
106390056,2024,3408,1,4
106390056,2024,5059,1,2
106390056,2024,4363,3,4
106390056,2024,6163,1,2
106390056,2024,8344,1,4
106390056,2024,1034,3,4
106390056,2024,2814,1,2
106390056,2024,5107,1,2
106390056,2024,3839,1,4
106390056,2024,7608,1,4
106390056,2024,518,1,4
106390056,2024,2992,1,4
106390056,2024,2615,3,4
106390056,2024,3638,1,3
106390056,2024,11548,1,3
106390056,2024,9099,1,5
106390056,2024,11652,3,3
106390056,2024,3221,1,2
106390056,2024,5298,1,5
106390056,2024,10380,1,3
106390056,2024,5218,1,3
106390056,2024,5382,1,5
106390056,2024,914,1,2
106390056,2024,5092,1,2
106390056,2024,1051,1,2
106390056,2024,3491,1,4
106390056,2024,588,1,4
106390056,2024,1000,1,4
106390056,2024,3377,1,4
106390056,2024,1001,3,2
106390056,2024,918,1,4
106390056,2024,2650,1,2
106390056,2024,2651,1,2
106390056,2024,3397,1,2
106390056,2024,931,1,4
106390056,2024,6295,1,4
106390056,2024,932,1,4
106390056,2024,2584,1,2
106390056,2024,5230,1,2
106390056,2024,2459,1,0
106390056,2024,1149,1,4
106390056,2024,7239,1,2
106390056,2024,2660,1,4
106390056,2024,2283,1,4
106390056,2024,10043,1,2
106390056,2024,6491,1,4
106390069,2022,2978,1,4
106390069,2022,2198,1,4
106390069,2022,2,8,8
106390069,2022,624,1,0
106390069,2022,4815,1,0
106390069,2022,1400,1,4
106390069,2022,460,1,4
106390069,2022,1418,1,4
106390069,2022,1853,1,4
106390069,2022,627,1,4
106390069,2022,1785,1,4
106390069,2022,5348,1,4
106390069,2022,1623,2,4
106390069,2022,6753,2,4
106390069,2022,956,1,4
106390069,2022,2262,1,4
106390069,2022,2147,1,4
106390069,2022,815,1,4
106390069,2022,1736,1,4
106390069,2022,696,1,4
106390069,2022,1028,1,4
106390069,2022,3652,1,4
106390069,2022,9537,1,4
106390069,2022,5402,1,4
106390069,2022,1094,1,4
106390069,2022,9538,1,4
106390069,2022,3580,1,4
106390069,2022,675,1,4
106390069,2022,35,1,0
106390069,2022,5754,1,4
106390069,2022,7505,1,4
106390069,2022,12303,1,4
106390069,2022,4706,1,4
106390069,2022,2805,1,4
106390069,2022,11464,1,1
106390069,2022,8416,1,4
106390069,2022,1008,1,4
106390069,2022,386,1,4
106390069,2022,8201,1,4
106390069,2022,1804,1,4
106390069,2022,731,1,2
106390069,2022,1683,1,4
106390069,2022,5854,1,4
106390069,2023,3267,1,4
106390069,2023,1071,1,4
106390069,2023,2,12,8
106390069,2023,1671,1,4
106390069,2023,506,1,4
106390069,2023,4492,1,4
106390069,2023,3419,1,2
106390069,2023,7546,1,4
106390069,2023,3599,1,4
106390069,2023,12774,1,4
106390069,2023,8278,1,4
106390069,2023,333,1,4
106390069,2023,6176,1,4
106390069,2023,1020,1,0
106390069,2023,4960,1,4
106390069,2023,5349,1,4
106390069,2023,5413,1,4
106390069,2023,3423,1,4
106390069,2023,1191,1,4
106390069,2023,8958,1,4
106390069,2023,2231,1,4
106390069,2023,3517,1,4
106390069,2023,35,3,0
106390069,2023,11934,1,4
106390069,2023,8359,1,4
106390069,2023,11470,1,3
106390069,2023,2111,1,5
106390069,2023,4923,1,1
106390069,2023,14184,1,1
106390069,2023,1411,1,4
106390069,2023,7173,1,4
106390069,2023,1543,1,4
106390069,2023,1370,1,4
106390069,2023,2738,1,4
106390069,2023,3474,1,4
106390069,2023,4416,1,0
106390069,2023,1683,1,4
106390069,2023,1551,1,4
106390069,2023,8840,1,4
106390069,2024,3956,1,4
106390069,2024,5387,1,4
106390069,2024,3968,1,4
106390069,2024,7845,1,4
106390069,2024,14223,1,4
106390069,2024,1032,1,4
106390069,2024,14400,1,4
106390069,2024,2822,1,4
106390069,2024,7608,1,4
106390069,2024,1303,1,4
106390069,2024,5333,1,4
106390069,2024,9099,1,5
106390069,2024,4367,1,4
106390069,2024,11096,1,4
106390069,2024,7076,1,4
106390069,2024,3417,1,4
106390069,2024,227,1,4
106390069,2024,3585,1,4
106390069,2024,229,1,4
106390069,2024,1683,1,4
106390069,2024,8443,1,4
106390069,2024,2,4,8
106390069,2024,4905,1,4
106390069,2024,4720,1,4
106390069,2024,6176,1,4
106390069,2024,1623,1,4
106390069,2024,1834,1,0
106390069,2024,878,1,4
106390073,2022,2,9,8
106390073,2022,624,1,0
106390073,2022,6836,1,4
106390073,2022,5048,1,4
106390073,2022,4954,1,4
106390073,2022,4200,1,0
106390073,2022,4123,1,4
106390073,2022,362,1,4
106390073,2022,9240,1,4
106390073,2022,5791,1,4
106390073,2022,4113,1,4
106390073,2022,5793,1,4
106390073,2022,813,1,4
106390073,2022,5003,1,4
106390073,2022,1623,3,4
106390073,2022,1521,1,4
106390073,2022,2801,1,4
106390073,2022,4095,1,4
106390073,2022,3699,1,4
106390073,2022,2420,1,4
106390073,2022,3531,1,4
106390073,2022,764,1,4
106390073,2022,9535,1,4
106390073,2022,5005,1,4
106390073,2022,634,1,4
106390073,2022,1613,1,4
106390073,2022,2208,1,4
106390073,2022,6798,1,4
106390073,2022,2956,1,4
106390073,2022,6218,1,4
106390073,2022,7153,1,4
106390073,2022,1432,1,4
106390073,2022,4296,1,4
106390073,2022,9155,1,4
106390073,2022,14175,1,5
106390073,2022,10407,1,5
106390073,2022,2281,1,4
106390073,2022,6685,1,4
106390073,2022,1599,1,4
106390073,2022,2764,2,4
106390073,2022,607,1,4
106390073,2022,5093,2,4
106390073,2022,6840,1,4
106390073,2022,5129,1,4
106390073,2022,4091,1,4
106390073,2022,206,1,4
106390073,2022,1871,1,4
106390073,2022,570,1,4
106390073,2022,655,1,0
106390073,2022,2456,1,4
106390073,2023,1930,1,4
106390073,2023,5301,1,4
106390073,2023,2,19,8
106390073,2023,762,1,4
106390073,2023,9749,1,4
106390073,2023,7371,1,4
106390073,2023,3600,1,4
106390073,2023,1623,2,4
106390073,2023,2801,1,4
106390073,2023,1942,1,4
106390073,2023,1126,1,4
106390073,2023,2261,1,4
106390073,2023,426,1,4
106390073,2023,1028,1,4
106390073,2023,633,1,4
106390073,2023,6929,1,0
106390073,2023,634,1,4
106390073,2023,3301,1,4
106390073,2023,2375,2,0
106390073,2023,2208,1,4
106390073,2023,4363,1,4
106390073,2023,144,1,4
106390073,2023,7720,1,4
106390073,2023,2822,1,4
106390073,2023,13144,1,5
106390073,2023,2637,1,5
106390073,2023,4081,1,5
106390073,2023,1680,1,5
106390073,2023,5308,1,5
106390073,2023,14463,1,1
106390073,2023,7120,1,4
106390073,2023,5356,1,4
106390073,2023,1000,1,4
106390073,2023,3627,1,4
106390073,2023,4596,1,4
106390073,2023,1852,1,4
106390073,2023,5833,1,4
106390073,2023,2362,1,4
106390073,2023,2508,1,4
106390073,2023,1287,1,4
106390073,2023,656,1,4
106390073,2023,2527,1,4
106390073,2024,4511,1,4
106390073,2024,6232,1,4
106390073,2024,1590,1,0
106390073,2024,1619,1,4
106390073,2024,4678,1,0
106390073,2024,1275,1,4
106390073,2024,8022,1,4
106390073,2024,1557,1,4
106390073,2024,6491,1,4
106390073,2024,378,1,4
106390073,2024,4926,1,4
106390073,2024,6176,1,4
106390073,2024,5022,1,4
106390073,2024,4286,1,4
106390073,2024,669,1,4
106390073,2024,4063,1,4
106390073,2024,3558,1,4
106390073,2024,3301,1,4
106390073,2024,1320,1,0
106390073,2024,886,1,4
106390073,2024,2336,1,4
106390073,2024,12756,1,4
106390073,2024,1387,1,4
106390073,2024,2208,2,4
106390073,2024,579,1,4
106390073,2024,1032,1,4
106390073,2024,3426,1,0
106390073,2024,2956,2,4
106390073,2024,3446,1,4
106390073,2024,7720,1,4
106390073,2024,2989,1,4
106390073,2024,975,1,4
106390073,2024,1904,1,4
106390073,2024,4349,1,4
106390073,2024,7251,1,4
106390073,2024,7757,1,4
106390073,2024,1626,1,5
106390073,2024,2310,1,5
106390073,2024,6025,1,5
106390073,2024,13161,1,5
106390073,2024,3491,1,4
106390073,2024,3905,1,4
106390073,2024,7467,1,4
106390073,2024,2,7,8
106390073,2024,1802,1,4
106390073,2024,4338,1,4
106390073,2024,7691,1,2
106390073,2024,3810,1,4
106390073,2024,833,1,4
106390073,2024,3847,1,4
106390073,2024,3612,1,4
106390073,2024,4417,1,4
106390073,2024,11832,1,4
106390073,2024,1707,1,4
106390077,2022,3628,1,4
106390077,2022,2,4,8
106390077,2022,7460,1,4
106390077,2022,5837,1,4
106390077,2022,2204,1,4
106390077,2022,1278,1,4
106390077,2022,3717,1,4
106390077,2022,4965,1,4
106390077,2022,2375,1,0
106390077,2022,381,1,4
106390077,2022,8954,1,4
106390077,2022,3446,1,4
106390077,2022,8584,1,5
106390077,2022,6458,1,5
106390077,2022,3928,2,5
106390077,2022,13051,1,1
106390077,2022,8170,1,1
106390077,2022,9130,1,4
106390077,2022,2408,1,4
106390077,2022,9773,1,0
106390077,2022,2016,1,4
106390077,2022,4224,1,4
106390077,2023,2,13,8
106390077,2023,6852,1,4
106390077,2023,1866,1,4
106390077,2023,5609,1,4
106390077,2023,3301,1,4
106390077,2023,2375,1,0
106390077,2023,15204,1,0
106390077,2023,2956,1,4
106390077,2023,3517,1,4
106390077,2023,7608,1,4
106390077,2023,2218,1,4
106390077,2023,580,1,4
106390077,2023,11790,1,5
106390077,2023,7104,1,5
106390077,2023,5700,1,5
106390077,2023,1370,1,4
106390077,2023,3296,1,4
106390077,2023,4852,1,4
106390077,2023,1206,1,4
106390077,2023,4013,1,4
106390077,2024,5363,1,4
106390077,2024,4405,1,4
106390077,2024,514,1,4
106390077,2024,11892,1,4
106390077,2024,2166,1,4
106390077,2024,7569,1,4
106390077,2024,4063,1,4
106390077,2024,3301,1,4
106390077,2024,3968,1,4
106390077,2024,2375,1,0
106390077,2024,2,6,8
106390077,2024,2937,1,4
106390077,2024,5007,1,4
106390077,2024,8546,1,4
106390077,2024,9540,1,4
106390077,2024,4277,1,4
106390077,2024,13244,1,4
106390077,2024,1280,1,0
106390077,2024,7757,1,4
106390077,2024,7348,1,5
106390077,2024,988,1,5
106390077,2024,2078,1,4
106390077,2024,2310,2,5
106390077,2024,5726,1,5
106390077,2024,6231,1,5
106390077,2024,9040,1,4
106390077,2024,1986,1,4
106390077,2024,6495,1,4
106390077,2024,13154,1,4
106390077,2024,474,1,4
106390077,2024,4106,1,4
106390077,2024,3079,1,4
106390077,2024,4158,1,4
106390077,2024,1436,1,4
106390077,2024,4443,1,4
106390077,2024,2387,1,4
106390077,2024,3296,1,4
106390077,2024,13924,1,4
106390077,2024,1775,1,4
106390077,2024,8443,1,4
106390077,2024,3497,1,4
106390077,2024,363,1,4
106390077,2024,19,1,4
106390077,2024,364,1,4
106390077,2024,1563,1,4
106390077,2024,11864,1,4
106390078,2022,1071,1,4
106390078,2022,505,1,2
106390078,2022,7162,1,4
106390078,2022,1024,1,2
106390078,2022,5333,1,4
106390078,2022,2,3,8
106390078,2022,5396,1,2
106390078,2022,120,1,4
106390078,2022,77,1,4
106390078,2022,5376,2,4
106390078,2022,4113,1,4
106390078,2022,663,1,4
106390078,2022,11784,1,4
106390078,2022,871,1,2
106390078,2022,5163,1,2
106390078,2022,3223,1,2
106390078,2022,4622,1,4
106390078,2022,9460,1,2
106390078,2022,9232,1,4
106390078,2022,963,1,4
106390078,2022,846,1,2
106390078,2022,1028,2,4
106390078,2022,11600,1,2
106390078,2022,886,1,4
106390078,2022,887,1,4
106390078,2022,3425,1,4
106390078,2022,2987,1,4
106390078,2022,4363,2,4
106390078,2022,972,1,4
106390078,2022,1034,3,4
106390078,2022,2822,1,4
106390078,2022,2613,1,2
106390078,2022,1037,1,2
106390078,2022,2615,2,4
106390078,2022,9675,1,5
106390078,2022,3244,1,3
106390078,2022,10675,1,5
106390078,2022,2799,1,5
106390078,2022,10496,1,3
106390078,2022,6231,1,5
106390078,2022,2762,1,4
106390078,2022,4672,1,2
106390078,2022,3874,1,4
106390078,2022,3627,1,4
106390078,2022,919,2,2
106390078,2022,920,1,4
106390078,2022,1115,1,4
106390078,2022,5241,1,2
106390078,2022,227,1,4
106390078,2022,3474,1,4
106390078,2022,2655,1,2
106390078,2022,11247,1,4
106390078,2022,3495,1,4
106390078,2022,932,1,4
106390078,2022,388,1,4
106390078,2022,3587,1,4
106390078,2022,99,2,4
106390078,2022,2584,2,2
106390078,2022,1151,1,4
106390078,2022,1066,1,4
106390078,2022,110,1,4
106390078,2023,505,2,2
106390078,2023,1464,1,4
106390078,2023,2,9,8
106390078,2023,4311,1,4
106390078,2023,1059,1,4
106390078,2023,945,1,4
106390078,2023,6023,1,2
106390078,2023,5607,1,4
106390078,2023,6661,1,2
106390078,2023,5905,1,4
106390078,2023,3386,1,4
106390078,2023,959,1,2
106390078,2023,9460,3,2
106390078,2023,9232,1,4
106390078,2023,6041,1,4
106390078,2023,886,2,4
106390078,2023,887,1,4
106390078,2023,10762,1,4
106390078,2023,3425,1,4
106390078,2023,4363,4,4
106390078,2023,1032,1,4
106390078,2023,8958,1,4
106390078,2023,7720,1,4
106390078,2023,981,1,4
106390078,2023,2615,2,4
106390078,2023,2673,1,4
106390078,2023,902,1,4
106390078,2023,5870,1,3
106390078,2023,11416,1,5
106390078,2023,5232,1,5
106390078,2023,7547,1,3
106390078,2023,7230,1,3
106390078,2023,5180,1,5
106390078,2023,10800,1,5
106390078,2023,4651,2,5
106390078,2023,10496,2,3
106390078,2023,5184,1,3
106390078,2023,4306,1,5
106390078,2023,560,1,4
106390078,2023,4556,1,4
106390078,2023,5069,1,2
106390078,2023,1000,2,4
106390078,2023,1001,1,2
106390078,2023,1004,1,4
106390078,2023,920,1,4
106390078,2023,562,1,2
106390078,2023,1852,1,4
106390078,2023,1311,1,4
106390078,2023,3249,1,2
106390078,2023,931,1,4
106390078,2023,10938,1,1
106390078,2023,2584,1,2
106390078,2023,7121,1,4
106390078,2024,5099,1,4
106390078,2024,4113,1,4
106390078,2024,5247,1,2
106390078,2024,1623,1,4
106390078,2024,1021,1,2
106390078,2024,3383,1,2
106390078,2024,957,1,4
106390078,2024,2464,1,4
106390078,2024,4114,1,2
106390078,2024,3225,1,4
106390078,2024,3628,1,4
106390078,2024,2795,1,4
106390078,2024,965,1,4
106390078,2024,5253,1,0
106390078,2024,11600,1,2
106390078,2024,886,1,4
106390078,2024,2556,1,2
106390078,2024,3425,1,4
106390078,2024,4363,3,4
106390078,2024,972,1,4
106390078,2024,1034,2,4
106390078,2024,6662,1,4
106390078,2024,700,1,2
106390078,2024,5107,1,2
106390078,2024,2671,1,2
106390078,2024,978,1,4
106390078,2024,2615,2,4
106390078,2024,7547,1,3
106390078,2024,6614,1,5
106390078,2024,10300,1,3
106390078,2024,10820,1,3
106390078,2024,1051,1,2
106390078,2024,2,2,8
106390078,2024,3491,2,4
106390078,2024,1000,1,4
106390078,2024,3741,1,4
106390078,2024,11247,1,4
106390078,2024,135,1,4
106390078,2024,2584,2,2
106390078,2024,2661,1,2
106390078,2024,2589,1,4
106390078,2024,5368,1,2
106390078,2024,2592,1,2
106390078,2024,2593,1,2
106390078,2024,944,1,4
106390101,2022,3628,1,4
106390101,2022,1930,1,4
106390101,2022,5333,1,4
106390101,2022,2,3,8
106390101,2022,1175,1,4
106390101,2022,1182,1,4
106390101,2022,3381,1,4
106390101,2022,5875,1,4
106390101,2022,2817,1,4
106390101,2022,2605,1,4
106390101,2022,3423,1,4
106390101,2022,4063,1,4
106390101,2022,3301,2,4
106390101,2022,3407,1,4
106390101,2022,2208,1,4
106390101,2022,4277,1,4
106390101,2022,2822,4,4
106390101,2022,5762,1,5
106390101,2022,11802,1,5
106390101,2022,3491,1,4
106390101,2022,5370,1,4
106390101,2022,4367,1,4
106390101,2022,248,1,4
106390101,2022,2362,1,4
106390101,2022,1608,1,4
106390101,2023,3628,1,4
106390101,2023,2,5,8
106390101,2023,4123,1,4
106390101,2023,4158,1,4
106390101,2023,2201,1,4
106390101,2023,11784,1,4
106390101,2023,1170,1,4
106390101,2023,23,1,4
106390101,2023,1736,1,4
106390101,2023,3717,1,4
106390101,2023,1028,1,4
106390101,2023,2375,2,0
106390101,2023,2828,1,4
106390101,2023,7608,1,4
106390101,2023,11472,1,3
106390101,2023,11123,1,1
106390101,2023,11226,1,5
106390101,2023,1005,1,4
106390101,2023,3122,1,4
106390101,2023,5593,1,4
106390101,2023,1683,1,4
106390115,2022,1071,1,4
106390115,2022,11115,1,4
106390115,2022,2,5,8
106390115,2022,2431,1,4
106390115,2022,1182,1,4
106390115,2022,5313,1,4
106390115,2022,6334,1,4
106390115,2022,8278,1,4
106390115,2022,235,1,4
106390115,2022,302,1,4
106390115,2022,2463,1,4
106390115,2022,845,1,2
106390115,2022,7061,1,4
106390115,2022,3717,1,4
106390115,2022,696,1,4
106390115,2022,1191,1,4
106390115,2022,9537,1,4
106390115,2022,4202,1,0
106390115,2022,1873,1,4
106390115,2022,2822,1,4
106390115,2022,1198,1,4
106390115,2022,127,1,4
106390115,2022,7785,1,5
106390115,2022,9492,1,1
106390115,2022,712,1,4
106390115,2022,730,1,4
106390115,2022,1770,1,4
106390115,2022,8413,1,4
106390115,2022,406,1,2
106390115,2022,1004,1,4
106390115,2022,922,1,2
106390115,2022,704,1,4
106390115,2022,6840,1,4
106390115,2022,2741,1,4
106390115,2022,1207,1,4
106390115,2022,229,1,4
106390115,2022,5535,1,4
106390115,2023,2,6,8
106390115,2023,687,1,4
106390115,2023,4123,1,4
106390115,2023,1180,1,4
106390115,2023,268,1,4
106390115,2023,14,1,0
106390115,2023,6334,1,4
106390115,2023,8283,1,4
106390115,2023,2954,1,4
106390115,2023,1252,1,4
106390115,2023,290,1,4
106390115,2023,1028,1,4
106390115,2023,2607,1,4
106390115,2023,9537,1,4
106390115,2023,1890,1,4
106390115,2023,1193,1,4
106390115,2023,2108,1,4
106390115,2023,2610,1,4
106390115,2023,35,1,0
106390115,2023,6447,1,4
106390115,2023,8145,1,5
106390115,2023,2780,1,5
106390115,2023,3351,1,5
106390115,2023,1598,1,4
106390115,2023,704,1,4
106390115,2023,607,1,4
106390115,2023,1370,1,4
106390115,2023,12769,1,4
106390115,2023,11013,1,0
106390115,2023,6554,1,4
106390115,2023,7239,1,2
106390115,2023,2527,1,4
106390115,2023,13608,1,4
106390115,2023,1016,1,4
106390115,2023,13651,1,4
106390115,2023,8443,1,4
106390115,2024,7609,1,4
106390115,2024,12800,1,4
106390115,2024,171,1,4
106390115,2024,6403,1,4
106390115,2024,3250,1,4
106390115,2024,424,1,4
106390115,2024,11248,1,4
106390115,2024,84,1,4
106390115,2024,1295,1,4
106390115,2024,13537,1,4
106390115,2024,1399,1,4
106390115,2024,494,1,4
106390115,2024,1320,1,0
106390115,2024,3446,1,4
106390115,2024,12946,1,4
106390115,2024,977,1,4
106390115,2024,1538,1,4
106390115,2024,128,1,4
106390115,2024,2615,1,4
106390115,2024,40,1,4
106390115,2024,10009,1,5
106390115,2024,3628,1,4
106390115,2024,749,1,4
106390115,2024,134,1,0
106390115,2024,7406,1,4
106390115,2024,1453,1,4
106390115,2024,151,1,4
106390115,2024,5850,1,4
106390115,2024,3670,1,4
106390115,2024,592,1,4
106390115,2024,1016,1,4
106390115,2024,5333,1,4
106390115,2024,2,5,8
106390115,2024,2431,1,4
106390115,2024,4158,1,4
106390115,2024,5517,1,4
106390115,2024,6334,1,4
106390150,2024,1623,1,4
106390150,2024,1127,1,4
106390150,2024,7608,1,4
106390150,2024,4521,1,4
106390150,2024,3928,1,5
106390150,2024,9223,1,4
106390150,2024,525,1,4
106390150,2024,4367,1,4
106390150,2024,3810,1,4
106390150,2024,2739,1,4
106390150,2024,665,1,4
106390150,2024,2362,1,4
106390150,2024,1168,1,4
106390150,2024,2719,1,4
106390150,2024,8443,1,4
106390150,2024,5333,1,4
106390150,2024,6687,1,4
106390150,2024,2,1,8
106390150,2024,3893,1,4
106390150,2024,4905,1,4
106390150,2024,6334,1,4
106390150,2024,3317,1,4
106390157,2024,4063,1,4
106390157,2024,840,1,4
106390157,2024,7720,1,4
106390157,2024,6218,1,4
106390157,2024,4098,1,4
106390157,2024,1821,1,4
106390157,2024,7757,2,4
106390157,2024,14806,1,1
106390157,2024,3249,1,2
106390157,2024,7566,1,4
106390157,2024,2,3,8
106390157,2024,1683,1,4
106390157,2024,1935,1,4
106390157,2024,12581,1,4
106390157,2024,5142,1,4
106390157,2024,10077,1,4
106390157,2024,2770,1,4
106390157,2024,3285,1,4
106390157,2024,3423,1,4
106390164,2024,2205,1,4
106390164,2024,12713,1,4
106390164,2024,1028,1,4
106390164,2024,1814,1,4
106390164,2024,14202,1,4
106390164,2024,2309,1,4
106390164,2024,1821,1,4
106390164,2024,1158,1,4
106390164,2024,2805,1,4
106390164,2024,7757,1,4
106390164,2024,2,3,8
106390164,2024,1868,1,4
106390164,2024,580,1,4
106390164,2024,7185,1,5
106390164,2024,4073,1,5
106390164,2024,4134,1,5
106390164,2024,1370,1,4
106390164,2024,2738,2,4
106390164,2024,2387,1,4
106390164,2024,2388,1,4
106390164,2024,2741,1,4
106390164,2024,1506,1,4
106390164,2024,326,1,4
106390164,2024,3712,1,0
106390164,2024,4040,1,4
106390164,2024,13059,1,4
106390164,2024,1382,1,4
106390164,2024,1834,1,0
106390164,2024,7071,1,4
106390171,2024,1467,1,4
106390171,2024,276,1,4
106390171,2024,1638,1,4
106390171,2024,12776,1,4
106390171,2024,6429,1,4
106390171,2024,2181,1,4
106390171,2024,13898,1,4
106390171,2024,9461,1,4
106390171,2024,13034,1,4
106390171,2024,13769,1,4
106390171,2024,3628,1,4
106390171,2024,1759,2,4
106390171,2024,3423,1,4
106390171,2024,8092,1,4
106390171,2024,2208,1,4
106390171,2024,5961,1,4
106390171,2024,7608,2,4
106390171,2024,580,1,4
106390171,2024,5561,1,4
106390171,2024,799,1,4
106390171,2024,6008,1,4
106390171,2024,8002,1,4
106390171,2024,5286,1,4
106390171,2024,5870,1,3
106390171,2024,9106,1,5
106390171,2024,4939,1,5
106390171,2024,6837,1,5
106390171,2024,13161,1,5
106390171,2024,3660,1,4
106390171,2024,5356,1,4
106390171,2024,922,1,2
106390171,2024,736,1,4
106390171,2024,2,12,8
106390171,2024,3181,1,4
106390171,2024,3296,1,4
106390171,2024,2584,1,2
106390171,2024,9874,1,4
106390171,2024,8232,1,4
106390171,2024,1775,1,4
106390171,2024,3850,1,4
106390171,2024,6374,1,4
106390171,2024,8917,1,4
106390171,2024,5430,1,4
106390171,2024,532,1,4
106390171,2024,12038,1,4
106390171,2024,1671,1,4
106390178,2024,6176,2,4
106390178,2024,2258,1,4
106390178,2024,5538,1,4
106390178,2024,5775,1,4
106390178,2024,1561,1,4
106390178,2024,2439,1,4
106390178,2024,5349,1,4
106390178,2024,5364,1,4
106390178,2024,513,1,4
106390178,2024,8709,1,4
106390178,2024,174,1,4
106390178,2024,2820,1,4
106390178,2024,5736,1,4
106390178,2024,1532,1,0
106390178,2024,1533,1,4
106390178,2024,3875,1,4
106390178,2024,3129,2,4
106390178,2024,1481,1,4
106390178,2024,1232,1,4
106390178,2024,650,1,4
106390178,2024,392,1,4
106390178,2024,1705,1,4
106390178,2024,5380,1,4
106390178,2024,5344,1,4
106390178,2024,8354,1,4
106390178,2024,11993,1,4
106390178,2024,4933,1,5
106390178,2024,4738,1,5
106390178,2024,6579,1,5
106390178,2024,3610,1,5
106390178,2024,7220,1,5
106390178,2024,3327,1,4
106390178,2024,2,8,8
106390178,2024,6074,1,4
106390178,2024,7693,1,4
106390178,2024,6685,1,4
106390178,2024,6440,1,4
106390178,2024,704,1,4
106390178,2024,4338,1,4
106390178,2024,2848,1,4
106390178,2024,1602,1,4
106390178,2024,5426,1,4
106390178,2024,7222,1,4
106390178,2024,4186,1,4
106390178,2024,227,1,4
106390178,2024,10188,1,4
106390178,2024,3400,1,4
106390178,2024,4598,1,0
106390178,2024,5984,1,4
106390178,2024,61,1,4
106390178,2024,6147,1,4
106390178,2024,4751,1,4
106390178,2024,8443,1,4
106390178,2024,5854,1,4
106390178,2024,4727,1,4
106390178,2024,4905,1,4
106390178,2024,5021,1,4
106390178,2024,11447,1,4
106390185,2024,1468,1,4
106390185,2024,6362,1,4
106390185,2024,2434,1,4
106390185,2024,12314,2,4
106390185,2024,1887,1,4
106390185,2024,1404,1,4
106390185,2024,1623,1,4
106390185,2024,1788,1,4
106390185,2024,763,1,4
106390185,2024,1091,1,4
106390185,2024,9142,1,4
106390185,2024,2530,1,4
106390185,2024,101,1,4
106390185,2024,2302,1,4
106390185,2024,1425,1,4
106390185,2024,11892,1,4
106390185,2024,1107,1,4
106390185,2024,5006,1,4
106390185,2024,6264,1,4
106390185,2024,2828,1,4
106390185,2024,4535,1,4
106390185,2024,483,8,8
106390185,2024,3206,1,4
106390185,2024,5266,1,4
106390185,2024,5705,1,4
106390185,2024,4484,1,4
106390185,2024,2897,1,4
106390185,2024,3491,1,4
106390185,2024,6685,1,4
106390185,2024,3150,1,4
106390185,2024,10037,1,4
106390185,2024,1242,1,4
106390185,2024,2,12,8
106390185,2024,3906,1,4
106390185,2024,3179,1,4
106390185,2024,3181,1,4
106390185,2024,12810,1,4
106390185,2024,3868,1,4
106390185,2024,640,1,4
106390185,2024,5854,1,4
106390185,2024,1506,4,4
106390185,2024,14414,1,4
106390185,2024,4141,1,4
106390185,2024,8667,1,4
106390185,2024,3378,1,4
106390199,2024,1105,1,4
106390199,2024,9781,1,4
106390199,2024,4314,1,4
106390199,2024,11285,1,4
106390199,2024,5363,1,4
106390199,2024,5736,1,4
106390199,2024,6929,1,0
106390199,2024,1191,1,4
106390199,2024,3301,1,4
106390199,2024,7844,1,4
106390199,2024,1415,1,4
106390199,2024,1094,1,4
106390199,2024,437,1,4
106390199,2024,6905,1,4
106390199,2024,11249,1,4
106390199,2024,39,1,4
106390199,2024,7374,1,5
106390199,2024,4440,1,5
106390199,2024,3846,1,4
106390199,2024,3373,1,4
106390199,2024,247,1,4
106390199,2024,5333,1,4
106390199,2024,2408,1,4
106390199,2024,2699,1,4
106390199,2024,3354,1,4
106390199,2024,3663,1,4
106390199,2024,657,1,4
106390199,2024,12295,1,4
106390199,2024,2719,1,4
106390199,2024,1756,1,4
106390199,2024,2,7,8
106390199,2024,3612,1,4
106390199,2024,806,1,4
106390199,2024,861,1,4
106390199,2024,13938,1,4
106390199,2024,6334,1,4
106390206,2024,4040,1,4
106390206,2024,7829,1,4
106390206,2024,1444,1,4
106390206,2024,4665,1,4
106390206,2024,14278,1,4
106390206,2024,13769,1,4
106390206,2024,12333,1,2
106390206,2024,8315,1,4
106390206,2024,8318,1,4
106390206,2024,669,1,4
106390206,2024,5333,1,4
106390206,2024,2375,1,0
106390206,2024,1320,1,0
106390206,2024,15205,1,0
106390206,2024,4276,1,4
106390206,2024,4179,1,4
106390206,2024,6218,1,4
106390206,2024,7153,1,4
106390206,2024,2990,1,4
106390206,2024,7505,1,4
106390206,2024,7608,1,4
106390206,2024,2,5,8
106390206,2024,1874,1,4
106390206,2024,4537,1,0
106390206,2024,7757,1,4
106390206,2024,580,1,4
106390206,2024,6009,1,4
106390206,2024,7777,1,5
106390206,2024,2897,1,4
106390206,2024,1698,1,4
106390206,2024,6331,1,4
106390206,2024,4245,1,4
106390206,2024,1636,2,4
106390206,2024,3931,1,4
106390206,2024,3688,1,4
106390206,2024,6499,1,4
106390206,2024,5735,1,4
106390206,2024,4463,1,4
106390206,2024,5991,1,4
106390206,2024,7451,1,4
106390206,2024,1072,1,4
106390206,2024,4906,1,4
106390206,2024,1701,1,4
106390206,2024,4494,1,4
106390213,2024,9597,1,4
106390213,2024,13298,1,4
106390213,2024,4857,1,4
106390213,2024,3423,1,4
106390213,2024,2936,1,4
106390213,2024,2375,1,0
106390213,2024,6255,1,4
106390213,2024,1408,1,4
106390213,2024,5804,1,4
106390213,2024,675,1,4
106390213,2024,623,1,4
106390213,2024,6905,1,4
106390213,2024,12061,1,4
106390213,2024,13779,1,1
106390213,2024,13972,1,5
106390213,2024,7179,1,5
106390213,2024,3191,1,5
106390213,2024,8409,1,4
106390213,2024,4474,1,4
106390213,2024,1164,1,4
106390213,2024,7886,1,4
106390213,2024,2,4,8
106390213,2024,8443,1,4
106390213,2024,4949,1,4
106390213,2024,377,1,4
106390213,2024,8026,1,4
106390213,2024,2817,1,4
106390213,2024,812,1,4
106390213,2024,6753,1,4
106390220,2024,3112,1,4
106390220,2024,491,1,4
106390220,2024,338,1,4
106390220,2024,2937,1,4
106390220,2024,5557,1,4
106390220,2024,3516,1,4
106390220,2024,13675,1,4
106390220,2024,1481,1,4
106390220,2024,2208,1,4
106390220,2024,2230,1,4
106390220,2024,1399,1,4
106390220,2024,12381,1,4
106390220,2024,746,2,4
106390220,2024,1745,1,4
106390220,2024,2212,1,4
106390220,2024,13204,1,5
106390220,2024,2282,1,4
106390220,2024,5017,1,4
106390220,2024,11143,1,4
106390220,2024,3962,1,4
106390220,2024,1603,1,4
106390220,2024,2,3,8
106390220,2024,6971,1,4
106390220,2024,352,1,0
106390220,2024,1498,1,4
106390220,2024,6908,1,4
106390220,2024,3002,1,0
106390220,2024,9789,1,0
106390220,2024,739,1,4
106390220,2024,1701,1,4
106390220,2024,4040,1,4
106390220,2024,4288,1,4
106390220,2024,3441,1,4
106390227,2024,5792,1,4
106390227,2024,1171,1,4
106390227,2024,4418,1,4
106390227,2024,389,2,4
106390227,2024,2418,1,4
106390227,2024,1943,1,4
106390227,2024,1611,1,4
106390227,2024,4607,1,4
106390227,2024,4163,1,4
106390227,2024,12189,1,4
106390227,2024,4926,1,4
106390227,2024,7376,1,4
106390227,2024,6204,1,4
106390227,2024,1319,1,4
106390227,2024,8526,1,4
106390227,2024,6929,1,0
106390227,2024,3968,1,4
106390227,2024,2375,1,0
106390227,2024,3407,1,4
106390227,2024,13573,1,4
106390227,2024,2774,1,4
106390227,2024,1904,1,4
106390227,2024,6006,1,4
106390227,2024,1869,1,5
106390227,2024,11701,1,5
106390227,2024,9112,1,5
106390227,2024,5180,1,5
106390227,2024,10464,1,5
106390227,2024,13878,1,5
106390227,2024,5394,1,4
106390227,2024,1898,1,4
106390227,2024,3741,1,4
106390227,2024,483,1,8
106390227,2024,2387,1,4
106390227,2024,11963,1,4
106390227,2024,2362,2,4
106390227,2024,4891,1,4
106390227,2024,1683,1,4
106390227,2024,8443,1,4
106390227,2024,2,7,8
106390227,2024,2904,1,4
106390227,2024,1353,1,4
106390227,2024,12581,1,4
106390227,2024,5674,1,4